#Executed at: 2018-11-15 15:45:37.096928
#Loaded File	 = ../rawdata/DD226_2_FCW_100OE.DAT
#Rescale Factor	 = 4.3281233794616405
#[[Data]]
#T/K	M/kAm-1	sM/kAm-1	M_raw/memu	sM_raw/memu
10.0041161	43.057162371913584	1.123693204035036	9.94822896598417	0.259625963845515
10.0078869	42.63641776668305	1.6017075661533235	9.851017179641131	0.370069756734281
10.5663967	42.58228491298133	1.518071127443472	9.838509945222029	0.35074580698120006
11.04623175	43.189937678788766	1.6047818286701598	9.97890630469065	0.37078005592108904
11.5595007	44.133606671817255	1.7511556402644537	10.196938211430302	0.40459928859104605
12.0105553	43.39789906637517	1.6220877095167898	10.0269551631343	0.37477852808312395
12.5181179	45.14283619650779	1.664583593344715	10.4301176835035	0.384597075315299
13.0510511	43.7680225611642	1.2971899709520311	10.1124710928662	0.299711874459869
13.5340443	44.41117156898433	1.4369076720682803	10.2610687531991	0.33199323265294994
14.0586424	43.1809064299751	1.1597968605260658	9.976819661584189	0.267967606013655
14.5568027	44.86312035756928	1.4558869605086908	10.3654901730527	0.33637834064928696
15.015727	43.91829142848031	1.3159379142444585	10.1471902665453	0.304043530849655
15.55860185	43.61745937967122	1.377846924820701	10.0776839187742	0.318347423125467
16.0397491	43.61965825636775	1.545497208298969	10.0781919626777	0.357082521176004
16.5477982	43.28762524662741	1.5104747324127856	10.001476725927299	0.34899068256244303
17.0205956	44.468319339272206	1.2255532573778094	10.2742725751047	0.283160425415195
17.5163975	43.0474753850194	1.6185016534167376	9.94599081654967	0.373949980515125
18.0222263	42.70276581033193	1.192080108598501	9.86634669727081	0.275426554209455
18.5125217	42.29074215092639	1.2250571744484196	9.771149859454049	0.28304580693372006
19.0208359	44.647453094747156	1.2615432879964708	10.3156608951154	0.29147581466436606
19.514267	43.43206825425946	1.4863630134822152	10.0348498520996	0.34341974180669
20.0105495	43.075649373702596	1.4159068248188988	9.95250033261774	0.327141049522257
21.3168736	42.99500319014912	1.467747886444279	9.93386727240135	0.339118772216435
21.5465393	43.05214383437121	1.3809652196370827	9.9470694478507	0.319067895843777
22.0377808	44.20699575226847	1.254921164952005	10.2138945396162	0.289945792882665
22.5030918	43.323048885408376	1.5041305402070209	10.0096612520314	0.347524875872211
23.0098648	42.668358107746364	1.3009502029896782	9.85839690019505	0.30058066485884205
23.5473557	43.98084608513254	1.490554160108545	10.1616433334216	0.344388093736355
24.0349884	43.36594304815137	1.4750140861969179	10.0195718204192	0.340797606000869
24.5202141	43.00209304508272	1.3228811584976028	9.93550536224122	0.305647746729011
25.0224552	44.27147509825108	1.576946148068306	10.2287923002227	0.36434870492635
25.5102978	42.622693651050554	1.3953621664030254	9.8478462636507	0.32239426746115296
26.0273571	43.11141670125209	1.3536118050979193	9.9607642669869	0.312747970984665
26.5436192	43.73272068898665	1.473288841151895	10.1043147005727	0.34039899327804096
27.0029125	43.71324904148015	1.3788114079544345	10.0998158344824	0.318570264077347
27.52352235	43.78562361558754	1.5304209219384741	10.1165377640029	0.35359919017115393
28.0644646	44.098073926681096	1.6100044840659167	10.1887284766282	0.371986734875885
28.5025406	43.83968596615597	1.463074974134584	10.1290287088833	0.33803910976229395
29.0223808	43.304962863002295	1.413741691554697	10.0054825304885	0.32664080193817097
29.5211487	42.828679000460326	1.6737371704001645	9.89543856436635	0.386711981997231
30.0018959	43.055595617134735	1.5434042789056652	9.947866971964709	0.356598956080971
30.5626316	43.47552529827689	1.4456223386833253	10.0448904725273	0.334006730386494
31.6379433	43.236955651439416	1.6832878833422158	9.98976966706007	0.38891864574147
32.0504456	43.481411310063855	1.4072371724090698	10.0462504179981	0.32513795218659197
32.505024	43.723361823529316	1.554056644930795	10.1021523626177	0.359060153484834
33.0262032	41.973244631105565	1.6361352808113208	9.697793004303511	0.378024177539697
33.5422058	43.34538340547373	1.2309996327588277	10.0148215762891	0.284418794205434
34.00865745	43.2061345947156	1.5962324369934946	9.982648553814991	0.368804744469194
34.5595627	44.78888248964801	1.440972156820054	10.348337735053	0.332932319734215
35.066082	42.93243914581289	1.287169139101615	9.919412036528659	0.297396591143786
35.5058517	44.63581844005202	1.285913672730832	10.312972742843598	0.297106519382722
36.01090245	42.698153706930775	1.3506458100300358	9.865281084533649	0.312062686669075
36.5015488	43.74898945326022	1.4851503721121626	10.108073550043299	0.343139564634337
37.0120087	43.11490884950691	1.2534797819814223	9.9615711174273	0.28961276564563604
37.5307159	43.93787589023922	1.513262263240079	10.1517151980322	0.34963473324743993
38.0554161	43.963401681839045	1.3481619675270047	10.1576128560613	0.31148880226577497
38.5047836	43.05137486008072	1.4719165717134928	9.94689177863403	0.34008193451651997
39.0156441	43.15893881562065	1.4434303036286091	9.97174410979685	0.333500267223933
39.5409966	42.88784339426917	1.4258460320398607	9.909108321122728	0.329437473711116
40.0408516	43.504941967190796	1.308380574395247	10.0516871061569	0.30229743001411197
40.5421333	42.48994256306524	1.3541921209521857	9.8171745206465	0.312882051232243
41.0532722	43.52144412410925	1.6973211521782001	10.0554998803021	0.39216099065764704
42.0854759	44.41093722072791	1.2606034825725445	10.2610146077333	0.291258675423746
42.5172462	43.10649093275388	1.193276169920724	9.95962618286444	0.27570290061120006
43.0052109	42.15169475872194	1.2841971254203488	9.73902337413612	0.29670991624552195
43.5336914	41.6641534248891	1.2474006128732857	9.626378402842931	0.28820819175178997
44.0089989	43.54045103421567	1.291954297142407	10.059891370202	0.298502187639371
44.5061531	43.56287138136454	1.6185175293644993	10.065071524551401	0.373953648605512
45.0230141	42.0573496950889	1.2765139255383133	9.71722522852855	0.29493473582472
45.5217743	43.84236148473774	1.4943287906619918	10.129646879472999	0.345260210869466
46.0275764	43.85025791205565	1.2406320644482502	10.131471325457	0.286644338822561
46.5569763	44.252571835350814	1.3568636732088335	10.2244247577007	0.31349930541435
47.0024529	42.26991730835177	1.3458311478866005	9.7663383416786	0.310950273338558
47.5056725	42.80385017055897	1.2182744151708456	9.88970193725928	0.28147867062939
48.0539703	42.75145622814822	1.2942277883213391	9.87759647310838	0.29902747099652305
48.5424042	43.972408249191275	1.4230554227542624	10.1596937965897	0.32879271175750796
49.0505829	44.951347146974335	1.4966275170632284	10.3858747096451	0.345791324749478
49.5542259	43.60122381687874	1.708138804479181	10.0739327404068	0.394660376962648
50.0231056	42.400518407377625	1.6170631817923302	9.79651333614516	0.373617625935948
50.51157	43.75320405952904	1.5217600973262226	10.109047322253401	0.351598132471794
51.0503693	42.85628332748303	1.4252545725409362	9.90181646180654	0.32930081875767103
51.5345764	42.50080568103838	1.6043101928031767	9.819684411659471	0.37067108586048003
52.5034714	44.44459119643212	1.44760086232769	10.268790258460799	0.334463862374402
53.0008125	44.142246039308326	1.532828067537413	10.1989343115258	0.35415535398348
53.5042191	43.391987479903655	1.5076023121556221	10.0255893087089	0.348327018427822
54.0613747	44.09537742356188	1.2847484391602995	10.188105457623701	0.29683729564107403
54.5517159	43.903644412533446	1.3086529915014515	10.1438061171894	0.30236037117413
55.0006752	41.95778432704374	1.4746169897778718	9.69422094715394	0.34070585805742304
55.5099602	43.20841295195377	1.3745279341194248	9.98317496146062	0.317580580221444
56.0027618	43.812624564817064	1.4191048148865288	10.1227762528033	0.32787993559071
56.5030899	42.11760447462374	1.3896774672623131	9.7311469156553	0.321080834676938
57.0446777	43.329017081949644	1.562495320598443	10.0110401860446	0.36100988433300996
57.5331039	43.23026000379056	1.4010285826439581	9.988222657637781	0.323703476035895
58.0191345	43.3131874105625	1.3875381971957361	10.007382787675999	0.320586562707537
58.5582504	41.65886179493327	1.2873388675042128	9.62515578752172	0.297435806385062
59.0640564	43.47060634191836	1.618138800803157	10.043753962329399	0.37386614450081396
59.5077972	43.21209754607321	1.5419265705870444	9.98402627594415	0.356257535980603
60.03132245	42.98451748117371	1.4890043969446285	9.93144458061184	0.344030025578855
60.5508614	42.1783221486985	1.2551681582609104	9.74517555318511	0.290002859950133
61.0342522	42.2967859304782	1.3400721128540471	9.77254625669644	0.30961966546820896
61.5856247	43.89020947511728	1.3764981512503907	10.140702014963498	0.318035793014202
62.0180244	44.3122992168121	1.5180200805721842	10.2382245910753	0.35073401275381505
62.9787712	44.78563330809064	1.5638937153404109	10.3475870213435	0.361332979268012
63.00671195	43.83385697951142	1.5099525999037977	10.1276819389016	0.34887004540328403
63.5445137	42.788184985511236	1.431399373715466	9.88608254296889	0.33072055674473694
64.0630035	42.071635310265634	1.5042605324978535	9.72052587731424	0.34755491020336
64.5606537	43.89382153326253	1.282103030209713	10.1415365702265	0.296226081791871
65.0042801	45.1040358919601	1.1330365163629132	10.421152988843499	0.261784708296335
65.5256195	42.33434720079722	1.5242280264463193	9.78122467619281	0.35216834013542203
66.0165482	43.0320548676275	1.3935875054031728	9.94242795199154	0.321984237329324
66.5334244	43.60414843069109	1.521104355809322	10.074608463706701	0.35144662534979
67.0206833	42.457610576148866	1.825494562745605	9.80970431148615	0.42177507494545396
67.5047913	45.04258002321861	1.2560632963564196	10.4069537936373	0.290209678937724
68.0078049	43.41731955036999	1.2548978306718113	10.031442208047801	0.289940401566811
68.5008774	42.460076511733526	1.3990176898735542	9.81027405854936	0.32323886525794304
69.0529099	43.71192874624436	1.305492359974026	10.0995107842054	0.30163011668498496
69.5430374	42.86141269462485	1.3925100602969054	9.90300158678846	0.321735296850552
70.0398941	43.396264435393974	1.4097868691132467	10.0265774865207	0.325727052006684
70.5382462	42.962842906766625	1.323701998587023	9.92643673483047	0.305837399383858
71.0370178	42.14016183781758	1.5204020311271809	9.7363587271533	0.351284355326372
71.5141296	42.698707297851286	1.6427097622346554	9.865408990064978	0.379543191866907
72.0024719	44.4636965638963	1.3137607825650854	10.273204496639599	0.303540511067524
72.5083313	43.803064913667626	1.4051511210525716	10.1205675239129	0.32465597624145204
73.3678665	42.842717506340804	1.2622236139224157	9.89868211928604	0.291633001940767
73.5668488	42.44688022209983	1.4437851018661025	9.80722509518193	0.33358224229866795
74.0267525	44.479166928210155	1.3945258648424155	10.2767788781804	0.322201042479495
74.5571518	44.30827638420045	1.282956335557303	10.2372951275968	0.296423235447804
75.0336151	42.533965784030336	1.3932590083100989	9.827345954569571	0.321908339055575
75.5289993	44.26687318661774	1.2087545007071088	10.2277290422631	0.27927912278172196
76.0189667	43.52537236547884	1.4024710895267267	10.0564074887562	0.32403676294948297
76.510704	42.47242473931246	1.5660576789764893	9.81312707970803	0.361832956613008
77.0151062	43.912526693896375	1.518609281981051	10.145858341810602	0.35087014598228605
77.5120926	43.39085063470016	1.469627040133363	10.025326644014799	0.339552945072505
78.05233	42.480569082517555	1.5450448658203457	9.815008805918458	0.356978008795241
78.5774994	42.99883453683229	1.4738678840765271	9.934752493627101	0.340532779419023
79.0397415	42.812619065919094	1.6158910410495804	9.89172796438266	0.373346806312757
79.5312195	43.01604592246646	1.440793784469999	9.93872913295209	0.332891107334656
80.0707474	42.4774797691663	1.3339084744053544	9.81429502928124	0.30819557518512203
80.5149841	42.8243281761581	1.4259299731828885	9.89443331938584	0.32945686806189306
81.0641632	43.622199566349124	1.2826933554898219	10.078779124770499	0.296362474687441
81.5482635	43.65975287340688	1.254149333198646	10.087455704379101	0.28976746345771803
82.0313492	43.92216933987765	1.0892425507224965	10.1480862464094	0.25166624313237196
82.5667267	42.4723282259211	1.5034421957687196	9.813104780576769	0.34736583594244197
83.9272995	42.95561336515625	1.3253375244193593	9.924766370800489	0.306215282750145
84.03871915	43.70875367630356	1.1164601725823131	10.098777193763901	0.25795479349786593
84.6249161	42.25429427236202	1.216053624226627	9.762728685802362	0.280965563504312
85.037468	43.101995397554354	1.503017572225397	9.95858750286265	0.34726772793902
85.5393524	44.30154929535847	1.255384641296368	10.2357408537806	0.290052877709905
86.0790901	43.36135937974807	1.2175173367554293	10.0185127775035	0.281303749919179
86.5442047	43.85559640675133	1.371893998325588	10.1327047687366	0.316972017210894
87.0316849	43.78310518877534	1.3910972934907146	10.1159558889981	0.32140888129297
87.5973511	43.05821359083115	1.5118587278630247	9.94847184698025	0.349310450584031
88.0498772	43.804426357235855	1.275614037586849	10.1208820813894	0.294726819397075
88.500206	44.17711542196188	1.4962550032922388	10.2069907784045	0.345705256553558
89.01047895	42.89183984731884	1.3001127474450418	9.9100316896821	0.30038717325261605
89.5461578	44.679345607934486	1.5287731628205778	10.3230295651812	0.353218480340719
90.0412674	43.92246256698402	1.5102283662199159	10.1481539956579	0.348933760388265
90.5439911	44.9748477431303	1.4075132549902092	10.3913044523062	0.325201740243663
91.0363312	43.393182725989455	1.5402585913911693	10.0258654667527	0.35587215436144903
91.6192322	43.76163827263194	1.428552513836131	10.1109960220393	0.33006279825919
92.037468	43.01690081295633	1.4554780268460714	9.93892665285042	0.336283857746013
92.5866013	43.98066606871911	1.488257469057664	10.1616017411661	0.34385745011797303
93.0558319	44.477703959975166	1.381446018228723	10.276440863732399	0.31917898292459396
94.4571457	43.53967295296052	1.336148196721124	10.0597115968483	0.30871305634714197
94.5696716	43.53536697413997	1.5959777762103022	10.0587167132826	0.36874590585465705
95.0370865	43.74904409653463	1.5723327790362052	10.1080861752089	0.363282799768934
95.5353851	43.644106205211386	1.1698343207578985	10.083840588352201	0.270286731267677
96.0611649	42.57207728779739	1.6440951170816132	9.83615150386327	0.379863273973053
96.52851105	42.93603941911592	1.288953119257947	9.920243868939009	0.29780877443892906
97.1048126	43.10380773146117	1.3168869594331918	9.959006237207289	0.30426280491038
97.5342407	42.86180841294966	1.109728330836665	9.90309301632734	0.25639942153744705
98.0282135	42.86776160667738	1.6821010041555522	9.904468483985209	0.388644420844764
98.5083389	41.92904815648903	1.4708376273308785	9.687581540640931	0.339832647634419
99.0024872	42.734103954973996	1.3765928948268127	9.8735872821374	0.31805768323500105
99.5500565	42.10347673005017	1.402651324506254	9.72788274240169	0.324078405704027
100.0666351	42.95689875696273	1.43192137520053	9.92506335674423	0.330841163631209
100.5347824	42.05964937561376	1.5379698654644633	9.71775656285598	0.35534335106125503
101.0241318	43.65546288898146	1.457910931697082	10.0864645162707	0.336845973156714
101.5165405	43.579153306446806	1.1553651357596446	10.068833414787601	0.26694366922214596
102.0025711	42.38467758115146	1.4881839470867542	9.79285336048427	0.343840463085843
102.545639	43.00960835307101	1.449623331446484	9.93724175174064	0.33493114783312794
103.0387344	44.02658326531079	1.4127569138703122	10.1722107725097	0.326413271990883
103.5535355	43.456959861803924	1.3356910644752966	10.0406009837939	0.30860743730495
104.720665	43.03917018372547	1.2812901326075818	9.944071924557509	0.296038264225027
105.0055313	42.46530398831478	1.442381842055799	9.81148185142469	0.333258023304135
105.5028381	42.88904752797308	1.5714060415920443	9.90938653262419	0.36306867984606894
106.01832585	42.389210043880745	1.2375875112246646	9.79390057248169	0.285940903879363
106.5244141	42.10779703801351	1.6932517721129654	9.7288809366731	0.39122077252880505
107.0075684	43.355975600680864	1.3962497405269207	10.017268871404898	0.322599338815659
107.5169983	42.387564766173256	1.1798773676624161	9.79352043597373	0.27260714730576296
108.0507813	44.07724409692136	1.5463672189664104	10.1839158065785	0.357283534546272
108.507515	42.305010221981306	1.499686880250837	9.77444645472271	0.346498181490699
109.0240974	43.61258264399785	1.4053050623171577	10.0765571635397	0.324691543911569
109.525383	42.01402358273924	1.5191756176600388	9.70721485947224	0.351000996152056
110.046875	41.847150729704985	1.2174989130230505	9.668659384407428	0.281299493170754
110.5386353	42.556040375752865	1.2799421015961392	9.83244622315879	0.295726805679774
111.039917	43.18906193094885	1.4353158872509424	9.97870396576379	0.331625455517739
111.5271683	42.57038742801395	1.537033153429703	9.83576106679961	0.35512692653897704
112.0195999	43.95613728072088	1.2708605246147007	10.155934437846	0.293628534400232
112.5071182	42.623023694846225	1.3868160374278824	9.84792251928547	0.320419709846715
113.01171495	43.98381172485851	1.412146312265621	10.1623285356365	0.326272194310984
113.5149612	44.16547173506145	1.555879883972932	10.2043005392686	0.35948140742846896
114.0262642	41.52045587889252	1.454541785159165	9.59317751335848	0.336067541896204
115.2061539	42.751442052209455	1.5306749813508715	9.877593197800001	0.353657889840762
115.5592422	43.262829237023055	1.4505953098230717	9.99574768185198	0.335155720538518
116.0442429	41.589267178533724	1.5133099878948026	9.60907615893955	0.34964575988659496
116.5469742	42.59196283190135	1.3787474737905216	9.840745999528139	0.318555492279432
117.0450058	42.162081572741684	1.312517808707091	9.741423216541039	0.30325332566428603
117.5324402	42.92684374613145	1.6135598739472883	9.91811923611821	0.372808197105507
118.0191956	41.60307821517676	1.2701976511585615	9.61226715777026	0.29347537946493496
118.5135117	43.099883228765414	1.5211916941077428	9.95809949256263	0.35146680460319
119.0065842	42.24582310816211	1.4564277211090422	9.76077144857569	0.336503281773405
119.5540543	43.855639517399936	1.3265514295316434	10.1327147293234	0.306495751906372
120.0450592	42.431139319225665	1.1134578494574106	9.80358820651354	0.25726111569303495
120.5507622	42.827952347348706	1.3266056948415013	9.895270673331849	0.306508289744391
121.0172882	43.623958425408055	1.553888107316226	10.079185503911	0.35902121337158105
121.5200424	43.132777437561444	1.3671314206344922	9.96569960141168	0.31587163783776995
122.0698318	41.507800224121446	1.5429332631163368	9.59025346206384	0.356490129287455
122.5434265	42.15391142615975	1.5084372289941401	9.739535528537342	0.34851992347357
123.059906	41.42799932004018	1.3719914908899502	9.57181570114881	0.316994542577159
123.5512466	42.261718054379614	1.587808231179399	9.76444392849919	0.366858356837531
124.0364227	41.75611004171486	1.3638217082555393	9.647624704938229	0.315106938662451
124.5327606	42.82266627668221	1.4699122102290483	9.89404934246786	0.33961883277271204
125.5764465	43.53851722633696	1.6230734738485901	10.0594445696584	0.375006285992355
126.0274353	42.64987000851411	1.4853073637156036	9.85412528000049	0.34317583707614996
126.5081558	43.86060140577762	1.269423422945694	10.1338611588363	0.29329649634516497
127.0032883	42.232747508970434	1.5558128769628932	9.75775037037498	0.35946592565862
127.5134201	41.84653829779634	1.4195012548347563	9.66851788384126	0.327971531858531
128.054245	42.03229764966074	1.5956665461384214	9.711437028139661	0.36867399707466303
128.537796	43.64171128490732	1.357576577657587	10.083287249157799	0.313664019861294
129.05363465	40.73455244344829	1.5752046646444466	9.41159686822863	0.363946340374516
129.5237274	42.40295676229676	1.4033707600017207	9.79707671077785	0.324244629129838
130.0081787	42.263662688412424	1.219820871010937	9.76489323039341	0.281835974639583
130.541687	41.111921234543395	1.5877460202248688	9.49878680206597	0.366843983182005
131.0124054	41.96321830294726	1.4483086457382075	9.69547645108188	0.334627393620733
131.5186157	42.1992301253806	1.352152563499356	9.750006278848181	0.312410817564897
132.0082245	41.47265900816003	1.4821976938584442	9.58213418890999	0.342457357128948
132.5521851	42.43310082651136	1.4435906352686838	9.80404140692252	0.33353731137125
133.0414276	41.946173783689325	1.4876820423700403	9.69153836573551	0.34372449949776795
133.5171967	42.189465244724516	1.447491480711853	9.74775013229228	0.334438590078248
134.052597	41.15106590235799	1.4214901584600554	9.50783106083187	0.32843106211008
134.5658722	41.93822326072285	1.5137059311289327	9.689701421113229	0.349737241390105
135.013916	40.86666357244174	1.4331895109456347	9.44212075061617	0.331134162613429
135.9595032	42.73028649727949	1.3115156855198853	9.87270526992106	0.303021788090297
136.0155487	40.89654067070262	1.3301809751997526	9.449023765073349	0.307334347609381
136.5575256	41.33474499217803	1.436469733163276	9.550269566788439	0.331892048174919
137.0549622	41.626562169078284	1.4146460866017276	9.6176930552881	0.326849759716806
137.5322418	40.88922276757059	1.4452046697243095	9.44733298537729	0.333910229219037
138.04946135	40.6673175328863	1.3851173887761066	9.39606244264339	0.320027242141234
138.5035553	40.91068305844674	1.2904733291998411	9.45229132158785	0.298160014412611
139.0908432	40.330057844404124	1.4837356850049785	9.31813959735608	0.342812705396937
139.506424	41.453209383053505	1.4057272507647887	9.57764041102953	0.324789089293393
140.059021	41.08541060583595	1.812591562704716	9.49266160036002	0.418793875263828
140.5789108	41.3964171725523	1.4028868687514544	9.56451874015233	0.324132827499468
141.0488586	42.8818713617383	1.5275524911258505	9.90772850081557	0.35293644778579697
141.5384827	41.22778982831649	1.5110091297307093	9.52555789512744	0.349114153469132
142.0025177	41.99179112499822	1.4129272653451719	9.702078116410219	0.32645263119114704
142.5441742	41.92200294681942	1.3159882393198126	9.68595376595617	0.30405515830824204
143.0284271	41.896962451443855	1.4843323106205135	9.68016823417249	0.342950553966219
143.5202026	43.36000236593536	1.3332120275998387	10.0181992435088	0.30803466322757
144.0088501	42.10905907337426	1.4746454375762128	9.729172526179708	0.340712430836396
144.541748	42.9058443967869	1.374860482601049	9.91326739907396	0.317657414556436
145.0291595	42.70783550332855	1.6010900299410558	9.867518034719431	0.369927076833981
145.5270538	40.69638077688161	1.5780566901078688	9.40277741849949	0.36460529235286204
146.417038	43.14726401901279	1.6570291827969035	9.96904668285582	0.382851651286109
146.5278015	41.409286946506974	1.3513461654670895	9.56749226304582	0.31222450170428795
147.0680695	40.90270289387783	1.7161733893852396	9.45044752836172	0.39651674384539104
147.5158691	42.17077638871973	1.6806239853720242	9.7434321278441	0.388303160059423
148.03878785	42.53474476164355	1.173448276872403	9.827525935024129	0.271121725050815
148.565506	43.5978753745198	1.413789338023287	10.073159092785101	0.326651810512653
149.0134735	41.66098881271477	1.6105833181800848	9.62564722863719	0.37212047277183197
149.5041656	42.95566918266936	1.2944117852860664	9.92477926727044	0.29906998294652903
150.0589294	42.859762504029646	1.2898675780602682	9.902620315172442	0.298020057418213
150.5609131	43.301917998887866	1.6219283618026754	10.0047790237149	0.374741711268966
151.0105591	41.952371450285725	1.6320325796276773	9.69297031812065	0.37707626066581307
151.5296326	41.6788215907162	1.8577663138091847	9.62976743881559	0.429231366791643
152.0177307	42.891651581454944	1.7604799739484487	9.909988191415671	0.40675364808279296
152.5123901	43.79405893557035	1.3469924499694597	10.1184867195301	0.311218588721703
153.0054932	41.55988370220879	1.526796161618421	9.60228719435865	0.352761700108543
153.5593872	41.570694522233836	1.1471800818169053	9.60478500208667	0.265052536917189
154.0383453	43.22471824014264	1.7808780573437253	9.98694224967293	0.411466564422487
154.5167084	40.34282014021612	1.1999095280636225	9.32108828774521	0.27723551822889
155.0567627	41.70302228032305	1.32383906189526	9.63535893598078	0.305869067452492
155.5452271	40.84603598865829	1.3533916504746324	9.43735480889618	0.312697104915474
156.03862	42.108716042664184	1.3479238281888555	9.72909326995709	0.311433780881847
156.8444214	41.89041422298486	1.484776779536096	9.6786552855144	0.343053247183721
157.0300293	42.7144270873605	1.328485626102621	9.86904100055336	0.306942642256161
157.5603943	42.46140972555856	1.6367060370964788	9.81058209362788	0.37815604907734
158.0404053	42.61200790513048	1.369579988907237	9.845377353921652	0.316437372235353
158.5431061	42.10361805274811	1.3444330201307098	9.727915394589612	0.31062724008989295
159.0158081	42.259108367598856	1.5364080687748682	9.7638409681508	0.354982502593532
159.53795625	42.71988745288754	1.5959615560695843	9.870302601725118	0.368742158239514
160.0280838	41.55173336002892	1.9834020986163108	9.600404082102989	0.458259140214949
160.5378723	43.703359703990735	1.5379388923095854	10.097530932546299	0.355336194806185
161.0041351	42.42530797122586	1.6431518363899507	9.80224089094775	0.379645331782186
161.5441742	41.77962004105755	1.5258782426243724	9.65305662017758	0.35254961766227905
162.0334625	43.17903753098682	1.3424173586492147	9.97638785804616	0.310161527515464
162.5128632	41.85029232836208	1.5199821415153878	9.66938524140864	0.351187341083713
163.0045624	41.622009628263925	1.615949810628887	9.616641204309	0.3733603848488
163.5530548	41.284626686398575	1.3646786209844688	9.53868988169506	0.315304925793085
164.0319366	42.84845971146981	1.4243698390317343	9.90000883865736	0.32909640371871896
164.5030975	43.786244687234316	1.8049025727793588	10.1166812607548	0.41701735707078297
165.0022125	41.49982361313902	1.3757389438533956	9.58841048988327	0.317860380409146
165.5116501	42.75507347767092	1.4184630626388737	9.878432227823659	0.32773166064764797
166.0184021	41.69462962793864	1.8501860042923672	9.63341983867495	0.42747995888289697
167.235611	42.36764729818478	1.3633530524840716	9.78891856439054	0.314998657144024
167.5395203	41.26977591714516	1.505988915351464	9.53525865574529	0.347954247907505
168.0348663	42.10896968011027	1.612863673599271	9.72915187213264	0.372647342091225
168.5094147	42.72620748638254	1.3823035657916285	9.871762826617271	0.31937711673172503
169.0650024	42.29869708294722	1.5823501040283754	9.77298782277519	0.365597272835877
169.5205841	41.01357006547885	1.600729452542935	9.47606305774499	0.36984376650141704
170.0107727	41.67803402854313	1.1884253518423045	9.62958547492408	0.274582133559725
170.55530545	43.68570466160767	1.750082673408571	10.0934517876525	0.40435138279867094
171.0044403	40.49148021567794	1.5625220429795008	9.355435754863931	0.361016058459465
171.5589447	41.92405933138185	1.4839934164986155	9.686428887477009	0.342872253489965
172.0035706	41.998517187950455	1.4673674593603694	9.70363215319765	0.339030875673163
172.52612305	42.83773425565771	1.4160572371338138	9.897530754076179	0.327175801839076
173.0449982	41.01312918290003	1.252716920736463	9.475961193139902	0.289436508829904
173.5344391	42.51180099070988	1.674870215535646	9.82222484517014	0.386973768696949
174.0635376	41.91793860442779	1.586266860501776	9.68501471176679	0.366502227738962
174.5652313	42.975432096045104	1.47388751894127	9.929345429471251	0.340537315995969
175.0465698	41.871617889930526	1.7273107597675101	9.67431244881443	0.399090000059648
175.5439301	43.77998217130424	1.6185038939697889	10.1152343251245	0.373950498188226
176.0395355	43.380385210028145	1.298611826922293	10.0229086388531	0.300040390041705
176.5275574	42.11387610220799	1.2066743425174746	9.73028548632696	0.27879850843521203
177.65951535	42.12045010277423	1.7017434012358248	9.73180438955357	0.393182738114896
178.0423279	41.58242309601174	1.3934279929164703	9.60749485408247	0.32194738244495097
178.5205994	42.16209361610388	1.72816268907734	9.74142599912396	0.39928683578616003
179.0012207	42.55322891197048	1.480077489811376	9.831796642835888	0.34196749030649803
179.5327301	42.50521035191704	1.320889512585752	9.82070209773089	0.305187582880332
180.0225067	42.51697489616102	1.6638279812905228	9.82342026059561	0.384422493403476
180.5138397	42.56197276952596	1.5898971612029023	9.83381688504917	0.367340997890098
181.0027466	41.2465422512014	1.5503318296200717	9.52989058651371	0.35819954601500104
181.5010986	43.09537020527335	1.770073580188883	9.957056771943	0.408970222195712
182.0552216	42.739901358512626	1.6804431669954802	9.87492675493666	0.388261382512738
182.5305786	41.13366022720095	1.7984795706381744	9.50380953149201	0.41553334157999
183.0127106	43.07188097902605	1.7506158756744645	9.951629656265391	0.404474577592152
183.50094605	42.55579451231077	1.5015567366978564	9.832389417143679	0.34693020624671506
184.0138092	40.000004493589984	1.7279785905255407	9.24188175489707	0.399244300364764
184.558136	40.78948440886499	1.4246290238701926	9.42428873502646	0.32915628760273397
185.0433044	43.232562690656195	1.4143689136438877	9.988754686571282	0.32678571973145
185.5252686	42.434188460911734	1.3691008633758706	9.804292701607311	0.316326671710123
186.0606995	42.07609213500277	1.426798901682547	9.721555613379131	0.329657631400522
186.5304413	41.50466177367518	1.8562190125305205	9.589528332447351	0.42887386744538897
187.002121	43.3124262351213	1.7137543196664444	10.007206920360199	0.39595782500073096
188.1043243	40.35617055907689	1.5609792097200186	9.32417286221093	0.36065959143571896
188.5146637	42.95751099922357	1.7972207885637963	9.92520481349284	0.415242503735498
189.0509338	41.52976958096928	1.7328892553173807	9.59532941644908	0.400378894820907
189.5471344	40.78400791067194	1.2533757677488184	9.42302340645033	0.289588733467372
190.0046234	41.020114709192086	1.401272012261493	9.47757517815826	0.323759719723099
190.5440674	42.87203536044574	1.7348489221381587	9.9054559220487	0.400831669995958
191.0249481	42.85109808786487	1.2758071291758954	9.900618427655582	0.294771432632909
191.5368652	42.31090749831989	1.736425263493568	9.77580900283457	0.401195878965344
192.0237885	44.04207545251959	1.6957014115869753	10.1757901961653	0.391786754424246
192.519104	42.963284069592355	1.5633550251939279	9.92653866418577	0.361208516516086
193.0114746	42.29032330770923	1.2999029500480743	9.77105308697775	0.30033870018968
193.5092621	40.943134644810016	1.5310873420772297	9.45978916384375	0.35375316455689304
194.033905	42.15025894511395	1.5912688311960823	9.738691633683711	0.367657918151588
194.5127563	40.962691345171315	1.3916109920598423	9.464307681142518	0.32152756981547503
195.0498657	44.80383326856369	1.8269021911847019	10.351792067937	0.422100303298642
195.5470581	43.589938109434385	1.5531242607299622	10.071325211356701	0.358844728895679
196.0457306	42.716866463699574	1.7626705075706859	9.86960461118208	0.407259764343857
196.5266495	41.64132811325541	1.7805799035447532	9.62110468265695	0.411397676876354
197.0236664	42.562201779167054	1.4657230069529767	9.83386979704382	0.338650929848329
197.54299165	41.79959187181597	1.59363519694524	9.65767105211665	0.368204659901231
198.5622711	43.76723105742809	1.56764869101592	10.1122882182883	0.36220055520018796
199.0166626	43.69053277217175	1.8434401214056417	10.094567308200501	0.425921342758704
199.5320587	44.0094508678235	1.628497571640638	10.1682523831605	0.37625950761209603
200.0330658	42.94334319594922	1.5296795416166096	9.92193138479587	0.35342789645864503
200.5118866	41.65248747286658	1.4300920175506968	9.623683019416971	0.330418496001512
201.0052795	41.92537841184032	1.6131584681918916	9.68673365708333	0.372715453502748
201.5476685	42.29721397296272	1.4538829628115555	9.772645154636031	0.33591532295745197
202.0338745	40.47344484499675	1.3493292609934597	9.35126873625102	0.311758501940233
202.5533295	40.41077279070322	1.3194752109390075	9.33678854499979	0.30486081270241705
203.0323029	42.58323563902169	1.6979426180635067	9.83872960763851	0.39230457849718403
203.5246887	42.708933483401594	1.6941304565732567	9.86777171974104	0.39142378995304505
204.0545197	41.88881434942555	1.714719683528602	9.67828563949948	0.396180869442287
204.5303497	42.669576552727555	1.5744153230176494	9.858678418274451	0.363763965345527
205.0115356	43.93095091542489	1.4784932857570046	10.1501152032522	0.341601464683964
205.5010529	41.91043652288867	1.3074048369700824	9.68328137819901	0.302071988791758
206.035202	42.15102943162684	1.8532314156113687	9.73886965229486	0.42818359208648193
206.5199432	41.77038807694785	1.6797179546719678	9.650923602400521	0.388093824368034
207.0671692	42.25318453899899	1.3646639572604462	9.76247228521815	0.315301537783378
207.51805115	42.730078342585074	1.127504831193287	9.87265717639965	0.260506628933839
208.0448303	41.371395254485755	1.6087436733376212	9.5587375006005	0.371695428316955
208.9167175	42.19670565523128	1.489223773079218	9.74942300754836	0.344080711780554
209.0223999	41.25306476950152	1.4591101651459375	9.53139759491626	0.337123052468858
209.510025	41.67579508524798	1.6216016271580707	9.629068173752449	0.37466622020368
210.0461578	40.761538763004076	1.8890361190186074	9.417831976886541	0.436456162036115
210.5310822	43.578483635012404	1.6275333637696394	10.0686786891997	0.37603673025885004
211.0189972	41.53383542981075	1.3515674100999568	9.596268818699201	0.312275619616942
211.51687625	41.95910803127545	1.683843183574354	9.69452678506928	0.389046946204154
212.0144348	40.08599513099309	1.7072998667217465	9.26174963523781	0.39446654289557503
212.5616302	40.3366506072261	1.8468767364347456	9.319662835545929	0.42671536241290603
213.0486145	40.13994747474113	1.7450014507083527	9.27421516337041	0.403177381446415
213.539505	42.49640762987601	1.6199071503275528	9.81866825505376	0.37427471638506
214.0133514	41.58467406101426	1.58848096934887	9.608014932833738	0.36701379098542597
214.5353851	40.24116604370382	1.5217184901338956	9.297601411887031	0.35158851925408297
215.036972	40.957759999266216	1.651090145163352	9.46316830837683	0.38147945435158204
215.5250244	43.371198520891284	1.6442689553286252	10.0207860817235	0.37990343878162497
216.0341492	41.569416389300194	1.599136503785415	9.60448969328385	0.369475720441298
216.5591125	41.80134614836744	1.6488283254403828	9.65807637248247	0.38095686764952497
217.0654907	42.46804472393284	1.4364699732727502	9.81211509021614	0.33189210365149696
217.5385895	40.955310919103916	1.3410886824347321	9.46260245570869	0.309854540838331
218.0001221	42.53399900373837	1.7905613760744954	9.82735362988405	0.413703866338768
218.5305786	43.414711033612086	1.7258780400306235	10.030839518029701	0.39875897443693004
219.38453675	40.73631869271232	1.3434819665401319	9.41200495485398	0.310407501993911
219.539505	40.99152539930226	1.5488429605601035	9.47096970336392	0.357855547258627
220.0049591	40.70833070070506	1.5188172290940722	9.40553841276323	0.350918191542634
220.5538635	41.02416272250112	1.2711504621726533	9.478510459561798	0.29369552360837897
221.0049667	41.69696741622333	1.926304962514211	9.633959977686649	0.445067017186977
221.5365906	41.152588463801855	1.4842585390150944	9.50818284411307	0.34293350925678
222.0223846	40.86269838460664	1.582554222252256	9.441204605791391	0.36564443374280703
222.5404053	41.70287893279678	1.5093353923574553	9.63532581596231	0.34872744144026596
223.022644	40.260665615100386	1.7955758839391973	9.30210672970886	0.41486245342722705
223.500351	41.82317889919585	1.3683055386297478	9.66312076445429	0.316142914299256
224.0039673	41.7451997620205	1.5838152066737952	9.64510391735021	0.36593578043304303
224.5518494	40.185342478346335	1.595517865231177	9.28470354358171	0.368639644794423
225.0282135	40.390582895218216	1.5471534857782225	9.33212372985593	0.357465199148428
225.5033417	40.03826996568523	1.714358889664424	9.25072287811385	0.396097509095886
226.0632935	42.14022486298566	1.6709998596265792	9.736373288930439	0.38607953450588295
226.5454712	40.56085314342384	1.5480053982568331	9.37146416294377	0.35766203098613697
227.0202484	41.64668293291449	1.6286499568865391	9.62234189777066	0.376294715768736
227.5604858	40.9053288653465	1.6321419973736664	9.45105425123869	0.377101541309731
228.0502319	41.052838368040426	1.7074587401150798	9.485135881950491	0.394503250119331
228.5201874	41.344949170366306	1.9516917276235604	9.55262721172913	0.45093255356004297
229.0162048	41.026161939789084	1.3549670076121707	9.47897237275435	0.31306108648425596
229.8437958	41.739873891216995	1.9728961644616898	9.64387339078325	0.455831775458095
230.0335236	40.178631134939785	1.4632615254963273	9.28315290770141	0.338082211898113
230.5525513	41.455221101998596	1.73241738774568	9.57810521269268	0.40026987122561397
231.0132141	41.234668578321404	1.5092936970359927	9.52714720980307	0.348717807860581
231.5056152	41.48695268373451	1.7850564777410458	9.585436700026541	0.41243197599489007
232.0507965	41.07418068834926	1.6560682599880532	9.49006696141327	0.382629632936676
232.5298615	42.02827100767034	1.7877789207453127	9.710506684515561	0.413060988332474
233.014389	38.94610472807403	1.5054803978444544	8.99838135689154	0.347836756453952
233.5127792	41.026406580430326	1.7011190332539925	9.479028896244971	0.393038479754611
234.0419159	39.09552734276025	1.6314019993852928	9.0329050064241	0.376930566981253
234.5259247	39.8021401118866	1.7298199116503883	9.19616577955258	0.399669732119687
235.0187836	40.58120994493931	1.5710625907699023	9.37616754122824	0.362989326557812
235.5241089	40.69795851076805	1.9043627515771862	9.403141949209019	0.439997334783479
236.02465825	39.17957228188582	1.5194029827425433	9.05232333898005	0.351053528176347
236.5128326	41.991935411116664	1.7710944558714987	9.70211145328761	0.409206092477844
237.003479	40.872764882710285	1.398703638873276	9.443530440159101	0.323166304710855
237.5568237	40.04276857106708	1.5875265970366703	9.25176226747211	0.36679328610871
238.0450287	39.86957489582127	1.5991444352611663	9.21174638528454	0.36947755298511803
238.5581436	41.07263598635836	1.95230089340086	9.4897100626247	0.451073299496305
239.0282593	39.76517942101878	1.989691260370721	9.18762612214743	0.459712232283501
240.2762909	40.360717969435456	1.5434755547686758	9.32522352781352	0.356615424156569
240.5115967	40.36060151000255	1.3897668255597806	9.32519662020884	0.321101480645094
241.0007782	41.64863095823855	1.4110818934300369	9.622791983212611	0.32602626351320796
241.5308228	37.7250502233238	1.877345904385622	8.71626035485529	0.433755172806358
242.0335693	39.77107276606287	1.2883937871756923	9.188987761945421	0.297679542429299
242.5624237	40.59405286352855	1.947627091959885	9.37913485926963	0.44999343161103306
243.02585605	40.266017934552245	1.7614714827726514	9.30334336715715	0.40698273323986306
243.5382233	39.996673680527216	1.7831190254337514	9.24111218047168	0.41198433341693397
244.0510101	40.67743821667251	1.8644264535364459	9.39840079645147	0.43077017221453495
244.5131226	42.08161767389009	1.8600165290947055	9.72283227266143	0.429751272323033
245.0377197	39.16532925641467	1.8813647918854592	9.049032530418831	0.43468372477853795
245.5095825	41.178041839306665	1.828520555275767	9.51406377061937	0.422474221495786
246.0084686	41.22104575396366	1.7880039446268792	9.52399969685961	0.41311297942927
246.5361633	39.73227111311189	1.9131780133038687	9.18002275574086	0.44203407471758394
247.0279694	41.34976269206838	1.74048503648951	9.553739361564071	0.402133877409475
247.5218506	39.11866500846874	1.5730831887965706	9.0382508950876	0.363456179706282
248.0131226	42.05759223738344	1.7579190916360512	9.717281267202422	0.406161963861278
248.5488892	39.00796532645417	2.1416275855675777	9.01267406367381	0.49481666713345107
249.0526886	41.04248860764627	1.8449101586013632	9.48274460067527	0.426260990469002
249.5348663	38.185568176412275	1.6857163443960015	8.82266165461347	0.389479734426074
250.7230225	39.16454931216486	1.9717025757304365	9.04885232662577	0.45555600034112
251.0273743	38.69573201954561	1.7037250374599597	8.94053348921833	0.393640589255078
251.5225067	39.45885958167094	1.8153907823307978	9.1168518367374	0.419440626610928
252.0091248	38.97468816766018	1.650389611657815	9.00498547536972	0.38131759817417704
252.5056763	40.52689561149695	1.6720696333885725	9.36361837645625	0.386326702543437
253.0231476	38.975749723239694	1.743717321283856	9.00523074462072	0.402880687172266
253.5192261	39.391146875710845	1.5219730220934824	9.101207017950252	0.35164732810431
254.0516205	40.006860956123475	1.5979228487829509	9.24346592011889	0.369195309072199
254.5518646	40.04834735472684	2.047653118094548	9.2530512288003	0.47310414666350104
255.0463715	38.04780521982398	1.8963442642945054	8.79083193431436	0.438144687208613
255.5273743	39.01323994501267	1.644142163484194	9.0138927485624	0.379874143904073
256.0127258	38.273328803509116	1.7352542705719385	8.84293848579469	0.4009253245428
256.5001831	39.179843403298875	1.3268368522073681	9.05238598077403	0.306561697964444
257.0374146	38.60536741703583	1.7810664172572246	8.91965501728322	0.41151008441879605
257.5246887	40.308210644819574	1.589117014473023	9.313091867042239	0.36716074731462195
258.0096741	39.08105302741636	1.4406731961773858	9.02956075902751	0.332863245769252
258.5053101	37.89996921191679	1.8676930584867524	8.7566748655467	0.43152491154701506
259.0403137	37.85528331414651	1.622122484431543	8.746350322123948	0.374786562723476
259.5052795	40.79774083740616	2.119556714919256	9.426196358219538	0.4897172582873319
260.0012817	40.13288897048894	1.7565590345954216	9.27258431701199	0.405847726737844
261.121521	41.15546902934964	1.9598521115283596	9.5088483901928	0.45281798592630196
261.5331116	38.86051053374086	1.9105669589504102	8.97860507353988	0.441430798395599
262.0205383	38.48506772065292	1.3745891695002512	8.891860131177669	0.31759472847357495
262.5183411	36.897987960836325	2.022612311192786	8.525170085476152	0.467318542902622
263.0255737	38.28425460097932	1.6200679385860164	8.845462858718541	0.374311866032694
263.5040283	38.4261318535804	1.8084778434490414	8.87824317484223	0.41784341269725805
264.0686035	39.02848322951314	1.3321790611715416	9.01741466398949	0.307795999414704
264.5522461	37.38780084275712	1.3716751089129133	8.638339891181118	0.316921443464842
265.0345764	36.88777764272322	1.7139139466403073	8.52281102192414	0.395994706337021
265.5319214	38.34131759892303	1.527508967918961	8.85864709422682	0.352926391878635
266.021637	37.303236446978836	1.7047139093512533	8.618801539714621	0.393869065156663
266.5191956	38.19583447538934	1.5113933156496249	8.82503365237716	0.349202918480023
267.0214539	37.592638880181795	1.8515816058487842	8.68566710888399	0.427802408460707
267.5240479	37.70676939948502	1.7377751304970688	8.71203662502228	0.401507761711087
268.0072937	40.00098140231387	1.4385581745052933	9.2421074667445	0.33237457631908596
268.5020447	37.37861654834462	1.5992976707082336	8.63621788734544	0.369512957578202
269.0495911	39.45323128096741	1.7892428699135074	9.11555143464391	0.413399229422167
269.53479	36.82792122789117	1.9280747402658827	8.50898137577401	0.445475919058876
270.0194092	38.67304423436108	1.5915692499050702	8.93529154410831	0.36772732899842603
270.5532227	38.44433037072415	1.075563787187899	8.8824478879588	0.248505805608916
271.5674133	38.50439279865098	1.9303573774872216	8.89632513282013	0.44600331558185197
272.0378723	39.483881307015416	1.5618243988702087	9.12263303176137	0.36085486986844595
272.5295715	39.7357411164461	1.4981917191053786	9.18082448966339	0.346152728966736
273.017334	39.64617871366593	1.7296147057335385	9.16013136358358	0.39962231990454
273.5123291	39.19415748467271	1.8052238876591933	9.055693206589671	0.417091595915581
274.0097351	38.07040007795802	1.9250961951529169	8.79605240890648	0.444787735092795
274.5581665	39.13265682698572	2.360300341148494	9.04148366303118	0.545340355210041
275.0021362	35.327352532234414	1.5184186325224334	8.162279453463421	0.350826096993405
275.5432739	38.93157399420154	1.5558192523465026	8.99502407416216	0.359467398671991
276.0187988	39.32678210607726	1.7016410201105356	9.08633572986752	0.39315908326120697
276.5054321	36.31199648941835	1.6104187908957135	8.38977850348043	0.37208245923341204
277.0406189	37.26985321795112	1.6505092781603228	8.61108844419934	0.38134524676272596
277.5375061	38.32332566345832	1.9842070185375584	8.85449011119115	0.458445114562415
278.0345154	34.4545189630997	1.6661326962796212	7.960613860177289	0.38495499092885505
278.5061951	36.31150746137268	1.5387480423564706	8.3896655150088	0.35552314651156497
279.0585022	36.59697248048588	2.147096890510504	8.45562135639443	0.496080333730591
279.5455627	37.81667414603985	1.6587265799274586	8.737429788968662	0.38324382983134403
280.0476379	38.044680403302735	1.6391648728109605	8.79010995477559	0.37872415573671797
280.5167847	37.71457968466792	1.954747328130487	8.713841168122869	0.451638540945113
281.0511475	36.740817949763596	2.023890271726908	8.48885642311187	0.467613811873046
281.8809509	37.336067349271616	1.744457243301424	8.62638702178488	0.403051643947916
282.0566711	37.545121052681765	1.830641704611305	8.67468825654223	0.422964306724318
282.5391541	36.92903038298763	1.7190905688989697	8.532342344543121	0.397190749472766
283.0299683	36.25248905322387	2.000294901926998	8.37602948780383	0.462162172044136
283.5179443	35.79521645268003	1.9482669102239893	8.27037801707318	0.450141259712963
284.0169373	37.196256303233476	1.5428587057764138	8.59408409652596	0.356472903036402
284.5559082	38.333250231421346	1.6174103967876086	8.85678315302312	0.373697848925183
285.00125125	37.13775734732414	1.6519916929101361	8.58056808721187	0.381687754269986
285.5198059	35.44962921485496	1.586485323908567	8.19053111634364	0.366552703057625
286.0127258	34.89182671453164	1.7113250517643226	8.06165251205748	0.395396549896225
286.5194397	35.1853311575586	1.5729396173730696	8.12946583836415	0.36342300795702404
287.0148926	36.83958191147939	1.887299993432885	8.511675541943939	0.436055035396805
287.5538025	36.473259617776485	1.6429034468688373	8.42703786838749	0.379587942124051
288.0054321	36.03229060752464	1.8332105665189065	8.32515329357514	0.423557834607509
288.5534058	37.16287998368664	1.4780009774569898	8.58637259742563	0.34148771831935
289.0415955	35.18870427487835	1.7819434688350901	8.13024518706196	0.411712724570421
289.5462646	32.643601511956156	2.1127940067712485	7.542206783397329	0.488154754736694
290.0303955	37.79658178477572	1.6407375121358103	8.73278750881568	0.379087509362983
290.526947	36.486525879771975	1.8598055234760844	8.43010299866045	0.429702520104087
291.017334	37.25943594123307	1.5108595773199036	8.60868156347882	0.34907959983059306
291.5031738	36.744274385719976	2.1055365864516804	8.48965502233221	0.48647794941409
292.3681488	36.4930732504799	1.7184153561843123	8.43161574913771	0.397034743588585
292.5152283	35.5912451714858	1.8051446226237595	8.223251060812611	0.41707328196551896
293.013916	37.81953781349787	1.6764950830023553	8.73809143079514	0.387349189479642
293.5573425	34.48360901234338	1.9503880230567192	7.967335029306089	0.45063133650763
294.04953	34.203623210844555	1.622097681464464	7.902645144810779	0.37478083207189694
294.5295715	35.90689283264356	1.947655085457807	8.29618051163548	0.449999899425249
295.0245361	35.34111749507062	1.9392191154941696	8.16545980707846	0.44805079372191603
295.5498657	35.71203023744642	2.294768701483081	8.25115809011168	0.530199465286158
296.0036011	37.216835415018494	1.7762717008300313	8.598838838935261	0.410402279486537
296.554657	35.43448990850182	1.9661701245689807	8.18703322475742	0.454277743998496
297.0625916	34.55438542977937	1.4815143309299172	7.9836877094935	0.342299468162157
297.552887	37.29120761074108	1.7048925546860394	8.61602231297288	0.39391034062853003
298.00354	35.40102243622572	2.2443829225656913	8.17930066509082	0.5185579813218869
298.5449219	34.56485564772515	1.9264625927567192	7.986106822126811	0.445103437184442
299.0231628	36.836455923067675	1.747962897715839	8.51095329164337	0.403861614946213
299.5289001	35.47815674423388	2.0963997672614303	8.19712231693517	0.48436691458693903
300.0034485	34.10865176084167	1.8754512465052382	7.880702274500391	0.433317417753123
300.5651855	34.78482781227852	1.8634146997032097	8.03693073477154	0.4305364095085
301.0167236	33.66902469866466	1.9695385384120354	7.77912775278893	0.45505600597204304
301.5254517	37.07070481984985	1.7967230818973574	8.56507580069516	0.41512751009442
302.7642212	34.702627391286725	1.9791690548934842	8.017938572629891	0.457281108086079
303.0604553	34.73265151214684	1.8841356889982062	8.02487555622019	0.435323932293392
303.5284119	35.32599268302258	1.7981714513765155	8.16196526435821	0.415462151543421
304.0083618	34.483388455916696	2.0835344122174053	7.967284070401421	0.481394412669578
304.5563354	36.14054984613542	2.0820012439825715	8.35016626781809	0.48104017872095506
305.0474243	35.10092940966288	1.9000007598478121	8.10996506620589	0.43898950960223004
305.5292358	33.94520862216281	2.0848154277598865	7.842939224709701	0.4816903874905731
306.0159607	32.617958668519556	2.3817024319595927	7.536282080890399	0.550285244469127
306.5040283	33.31316851167095	1.8535455396575369	7.696908241976839	0.428256169510605
307.0593872	33.653194443668944	1.9565970539355702	7.77547021957931	0.452065914576341
307.5331116	37.355671129791745	2.061271212064862	8.63091641681395	0.47625056666505106
308.0011597	33.9734654148285	2.03299760972196	7.849467872390998	0.46971803515796196
308.58929445	34.707635845360805	1.3258295074320205	8.01909576100808	0.306328953958086
309.0548706	31.423013861461012	1.7165839467443185	7.26019364664452	0.39661160189889
309.5450134	31.800212578623267	1.852546787415189	7.34734428540685	0.428025410783373
310.0605164	33.885521113820836	2.060456533423812	7.8291486039004115	0.476062337594476
310.5270691	33.49941577383511	1.7784702554594107	7.739940116495011	0.410910248977382
311.0169983	31.620183960594435	2.1820446217386316	7.30574921007163	0.5041549028138029
311.5057983	34.654451356177816	2.0941422726087873	8.00680764338293	0.48384532717948303
312.0002136	33.57927344285365	1.8340639909326903	7.75839099277952	0.423755015773331
313.1873169	33.62500529224367	1.7483890262571977	7.768957200204899	0.40396007067494305
313.5789795	34.7472279007479	1.7089963833673252	8.02824338733846	0.394858518007382
314.05963135	34.32019951303364	1.8363997918919637	7.929579751791319	0.424294695619418
314.5179443	31.835307829625272	2.086699267352808	7.3554529384939	0.48212564301075106
315.0004272	34.007016475835776	2.0201212540554523	7.85721974498467	0.466742991579581
315.5513916	32.67622875429737	2.212738796406824	7.54974521044311	0.5112467003383019
316.0412292	32.0874803992205	1.732141851301436	7.4137166586992596	0.40020620935184403
316.5394897	33.66744156687985	1.6934807024611251	7.778761974911081	0.391273666203058
317.0428772	32.00115532174807	1.8733171776938855	7.39377150697783	0.432824347518231
317.5253601	35.698930076673555	1.838331177944715	8.24813133703088	0.424740936607352
318.0241089	35.04787212876926	2.2783758224406987	8.09770633967665	0.5264119394683471
318.5250244	33.67265788002346	1.9662222206091002	7.77996718850743	0.45428978063321096
319.072113	31.33875970326304	1.7525667192281025	7.2407269746458	0.404925314177642
319.52890015	33.706872106805214	1.9092422277551544	7.78787228357568	0.441124723203394
320.0032349	35.37879352551049	1.920250082608998	8.17416474155853	0.44366805524103403
320.5332336	32.05814612637027	1.7720066863364685	7.40693906243446	0.409416860606428
321.05715945	34.34102873968744	1.9019639431053714	7.934392282495189	0.439443097239513
321.51113895	31.769211789416143	2.0691470766697684	7.340181645507481	0.47807026169553
322.0133972	32.65771526522419	1.9254955235929025	7.5454677240015195	0.44487999873802303
322.5031738	32.39950924280404	1.8261217873947815	7.485809992513221	0.42191999333021
323.5609436	32.67679159916662	1.8218537076107797	7.549875254071701	0.420933866223886
324.0083771	32.53774592525492	1.827191032099061	7.517749165760189	0.422167039130557
324.5229492	28.71077070205035	2.0218645748644715	6.63353795279782	0.467145780653777
325.0548706	31.766238799483165	2.026609215463873	7.33949474504917	0.468242015715355
325.533844	32.48818439397145	2.0591706081132366	7.50629812175376	0.475765228386204
326.0161743	28.646621423052057	1.9595228909339548	6.61871645318376	0.452741920489728
326.5182495	32.029564019228545	1.8083965737012109	7.40033525181359	0.41782463556437494
327.0609131	32.85519139952694	1.8272957613266236	7.591093995941879	0.42219123650627405
327.5485535	32.0760978363287	1.9737369307658454	7.41108675148686	0.45602603200543496
328.0336914	32.49999927816409	1.8097496750067765	7.5090279155135	0.41813726558596503
328.5033264	33.44853438533227	1.9965683485048302	7.728184123413971	0.461301162988837
329.052948	32.20410240969375	2.146928201220902	7.44066182644255	0.49604135857327397
329.5271301	33.43581446189439	1.6569888556175139	7.72524522303552	0.38284233381157
330.0224609	30.243459526971524	2.1616256625229466	6.98766113519005	0.4994371631780569
330.5201111	32.141448052798694	1.4037549644176548	7.42618572412246	0.32433339841441
331.0647278	31.006308537410966	1.728627424906935	7.16391512417276	0.399394211613707
331.5153503	31.85569770536866	1.837728926435664	7.360163958480101	0.42460178819215
332.0402527	29.569564157719796	1.9130273566412126	6.83195961973659	0.441999265944948
332.5075073	29.84914743653103	2.2245165480298663	6.896556502565289	0.513967914728569
333.0505981	31.840225385844153	2.0824340554748586	7.35658912519371	0.48114017852556806
334.0338745	30.418313504739942	1.942902245007336	7.02806062532431	0.448901769812534
334.5513916	30.87144881781169	2.0331472646895494	7.13275618812227	0.46975261249193995
335.0256653	28.660423366669175	1.9184347994358635	6.621905351097949	0.443248639477207
335.5007935	30.321625561593073	1.7228779927192446	7.00572116439173	0.39806582245202704
336.0437622	31.8432685247641	2.100176732187006	7.35729223336627	0.48523957106976906
336.5052795	29.81141293530867	1.6205674679024284	6.88783805858529	0.37442728079161297
337.0394897	27.51622991501012	1.6950195401454888	6.35754286617235	0.391629210061088
337.5029602	30.915507674898784	1.77003237918224	7.14293585566506	0.408960702825992
338.0132446	31.065229901045925	2.033192962097702	7.177528729532201	0.46976317074182006
338.5044861	28.81803279401368	1.971091274583014	6.6583205392814495	0.455414761033959
339.0371094	30.71278104006481	2.0498305498943012	7.09609647123439	0.47360723578755104
339.5145874	29.256198332531586	1.5224410474443657	6.75955738030986	0.351755463965941
340.0309906	28.330023294634042	1.84227706828838	6.5455673997347805	0.425652622804282
340.513031	31.102354192417966	1.899897857517263	7.18610618634598	0.43896573432561997
341.0350647	31.385028738541894	2.0481931699157485	7.25141729726886	0.47322892402630995
341.5115356	30.19476627755859	1.879481763049853	6.97641070512052	0.43424865658142003
342.039917	26.537233770529745	1.6711137810201657	6.13134872643825	0.386105855704148
342.5158691	27.736431310643802	1.6475660298419903	6.4084197419746	0.380665218015787
343.02833555	28.978805233752368	2.149424676210244	6.69546653204626	0.496618161674865
343.5326538	30.22583134158261	2.3982192803959204	6.98358819552466	0.5541014130457219
344.394104	27.184327416859503	2.0989308404355747	6.28085778373556	0.48495171149595395
344.5187073	30.644405879308056	1.900915379636985	7.080298594241969	0.439200829777046
345.0370483	31.200193359578492	1.7892155417170437	7.20871163415387	0.413392915323869
345.513855	31.069704054601594	2.183524125699801	7.17856246936894	0.504496737792027
346.059082	30.884576144791364	2.4652096134313455	7.135789217874141	0.569579329722801
346.5545654	29.26720153875815	1.9832962861984598	6.76209963829603	0.45823469257134597
347.00486755	26.840748389623307	1.77315701119822	6.20147487407393	0.40968263973537106
347.5283203	29.07556125515886	1.9499071130182697	6.71782172225771	0.45052022367736005
348.009613	28.76529026699364	2.291184644731097	6.64613453569608	0.529371379661568
348.5538635	28.274648890270832	1.66442396555195	6.53277330873775	0.384560193789804
349.0149536	28.895529453842673	1.8756186550513072	6.67622591143344	0.433356096998466
349.500946	28.833953957396787	2.3283537420380465	6.66199907660288	0.537959188752993
349.7583008	28.18875547719403	2.063217427978089	6.51292789178767	0.47670023404802403
