#Executed at: 2018-11-15 15:45:37.053497
#Loaded File	 = ../rawdata/DD226_2_ZFCW_100OE.DAT
#Rescale Factor	 = 4.3281233794616405
#[[Data]]
#T/K	M/kAm-1	sM/kAm-1	M_raw/memu	sM_raw/memu
10.0115852	-2.1006876981198856	1.3313832712894136	-0.485357628224818	0.30761213453555003
10.0177927	-1.2614017936647592	1.3848372191871814	-0.291443122820972	0.31996250979320195
10.5507603	-1.1882818350906623	1.6087826731959756	-0.27454897444223697	0.37170443911792694
11.0278635	-0.6208535520457543	1.304728703519894	-0.14344636176313902	0.30145367613854496
11.5781088	-1.2218299643957233	1.2085133383806121	-0.28230016967485394	0.27922340294535103
12.0595388	-2.178253080090347	1.2781109795646115	-0.50327887842266	0.295303730394948
12.54279135	-1.1617869174343394	1.2288740533355471	-0.268427402727796	0.28392768541833996
13.0273476	-1.629435188669853	1.2633843677335284	-0.37647614123064405	0.29190119064736
13.5557456	-1.2033680264353879	1.2382409807770072	-0.278034593964156	0.28609188607073105
14.0002365	-1.8260426198613722	1.1535014342141812	-0.4219017019077	0.26651306653777995
14.5552206	-2.0317848775686844	1.2745758143260164	-0.469437837010416	0.29448694100872796
15.0030446	-1.2095181918652078	1.2061580324364238	-0.27945557134641	0.27867921653066496
15.54872325	-1.5594716117686327	1.1865685297713324	-0.360311265424834	0.27415312035742506
16.019949	-0.24705030610692377	1.1666009394043402	-0.0570802365014034	0.26953966814815
16.5301857	-0.712027684916611	1.135047222100438	-0.164511873274088	0.262249275860898
17.0303345	-1.9541807513629252	1.1330998948080628	-0.451507635072547	0.261799351697087
17.517375	-0.09817719300443571	1.1757573579188785	-0.0226835476711035	0.271655231340731
18.002594	-1.487288599314663	1.5136732003461586	-0.343633595653103	0.34972967904035096
18.505331	-0.9565132381904808	1.1163842148115348	-0.220999531281721	0.25793724368144
19.0145779	-0.10346094802385056	1.2156435878209844	-0.023904343511741498	0.280870825815551
19.5251579	0.16094462761846293	0.9641331818782978	0.037185776260953596	0.222760096547484
20.82198045	-1.8911339372514262	1.487474122779785	-0.43694085668293897	0.343676460296473
21.0403843	0.12065551384316943	1.1624444746642957	0.0278770966686669	0.268579329364887
21.5438309	-1.9981538827811225	1.213420722940113	-0.461667495955179	0.280357239513594
22.014267	-1.4506235567891734	1.2122716068023156	-0.335162246915801	0.28009173965671597
22.5226593	-1.4941941198702866	1.3088376040566259	-0.34522909558464204	0.302403025354473
23.0383453	-0.8489323568037472	1.345939630641007	-0.19614328945247	0.310975337955459
23.5280609	-2.646515183748157	1.168484561309155	-0.6114694410761801	0.26997487337214
24.0301056	-0.6329010972781495	1.1392924967787794	-0.14622991116230002	0.26323013391556593
24.5205479	-3.074262344315502	1.288761803974735	-0.710299146947585	0.29776457161326103
25.067276	-0.8244892670472369	1.3303587517117557	-0.19049578645555898	0.30737542234233495
25.5261831	-0.22685054648628633	1.3505522022134797	-0.052413142278421705	0.312041058862206
26.0159016	-2.131475221543013	1.3656639191447815	-0.4924709937007709	0.315532575994784
26.5238304	-0.3225723143971948	1.3461200207734478	-0.07452937130394799	0.31101701655762104
27.0463581	-0.32219161459608664	1.203556332383001	-0.07444141175018049	0.27807810149180795
27.51868155	-1.317218934180205	1.2288148114129227	-0.30433950668570103	0.28391399774878195
28.0644283	-0.7477426848735261	1.175288279443959	-0.172763717509027	0.27154685215793195
28.5350704	-1.1278383915480141	1.3851147498763687	-0.26058369705909395	0.320026632431319
29.0051575	-1.652002771074503	1.205521771062581	-0.381690313846827	0.278532210237623
29.5294418	-1.522470598130008	1.2972784718579564	-0.351762291563736	0.299732322330266
30.0502148	-0.7273016509813142	1.4205532883486087	-0.168040877585098	0.328214601064655
31.2373581	-0.8592750628614853	1.372011878573113	-0.19853294084429898	0.316999253090556
31.5060234	-1.3648493848258882	1.1173105467627538	-0.31534438026941297	0.25815126991637005
32.0013008	-0.806818609296105	1.43020520164486	-0.186413033677534	0.33044464684894403
32.5864944	-2.0016966970783288	1.316754478222471	-0.462486052633581	0.304232195521713
33.0505066	-1.4828239823451248	1.34912392125464	-0.34260205921615106	0.31171105880591893
33.5507545	-1.6719915795229192	1.2175642499997321	-0.38630866843054096	0.281314589084376
34.0195122	0.22805115657199085	1.5266384840357257	0.0526905396584044	0.35272526917326896
34.5374527	-0.5932697399203808	1.2342571285161439	-0.13707320422879798	0.285171428886038
35.0054245	-0.6938748515266305	1.0568660099311622	-0.16031771525259503	0.24418573993207698
35.5276642	-1.1561770693086755	1.044918780815227	-0.267131264047396	0.24142536827247302
36.0160637	-0.9441904441037683	1.1901324453149813	-0.218152386455585	0.274976552415892
36.5619469	-1.0047238811482002	1.2558059465924014	-0.232138456568947	0.290150219042186
37.0787392	-1.9945944578863957	1.5140657945743377	-0.46084510144775404	0.349820386766023
37.5248413	-2.267338389232546	1.3973653463613878	-0.523861773440149	0.322857096216883
38.0557022	-0.3056632263189165	1.2313278033012511	-0.0706225769277716	0.284494617030629
38.5061722	-1.4263700319204464	1.2173551326103162	-0.329558542320914	0.28126627313515695
39.0432205	-2.3531364832561232	1.2768169068342683	-0.5436851672072299	0.29500473874963495
39.5632362	-0.8063242024237204	1.4109008931978457	-0.18629880244403202	0.32598444394931797
40.0640526	-0.5359305480282635	1.2238313019639575	-0.12382515493237299	0.282762572751839
40.57061	-1.392107910217446	1.521562386690704	-0.321642381273938	0.351552452019047
41.6722107	-0.96125923172692	0.9793937873055047	-0.222096078935367	0.226286013923043
42.0651207	-2.799554729565921	1.2851584819946031	-0.646828771760695	0.296932034815158
42.5182877	-2.204396653130713	1.2476890643236571	-0.509319273011323	0.288274837599212
43.0324821	-0.9586843356367891	1.105183008526715	-0.22150115687229702	0.255349238372263
43.5336342	-0.618484324672292	1.1661177101261448	-0.14289895884373402	0.269428019464453
44.0541	-0.9645449846882622	1.0818456312946192	-0.222855242358696	0.24995720695679105
44.5628548	-1.5797617881565353	1.1110915548466522	-0.364999250172262	0.256714390379707
45.0082893	-1.247936802558165	1.1496884948226298	-0.288332076779519	0.265632098261865
45.5094147	-0.003537300189607339	1.080096181856432	-0.000817282660284821	0.24955300188110194
46.0114708	-0.9698407196782433	1.5372280194813228	-0.22407880613580802	0.355171949759097
46.5039673	-0.7348200826587686	1.0946919030704596	-0.16977798880358402	0.252925299741946
47.0005569	-0.9461199424002008	1.4122673137772876	-0.218598191283051	0.326300151349418
47.5466805	-1.303513697216462	1.31713380571553	-0.301172952555387	0.30431983800779805
48.0048523	-1.6867709267848983	0.964430917687932	-0.389723392542176	0.222828887518427
48.5102806	-2.081282288847963	1.2352088496937932	-0.4808740662810879	0.28539132122602207
49.009903	-0.6573031348560099	1.1742406524215656	-0.151867929175755	0.27130480105851906
49.5714684	-0.6672198178865496	1.2609319435003474	-0.154159149217586	0.291334565341617
50.0064697	-0.8611903159432049	1.2884482025170214	-0.198975454357386	0.297692114931642
50.5269203	-0.6108103983662552	1.4148729920939376	-0.14112592105501198	0.32690218555413003
51.0262489	-0.39927054003203305	1.4480672761175004	-0.0922502676163767	0.33457162588965295
52.1011162	-0.0024766189459270098	1.2601711557961133	-0.0005722154219723439	0.291158787611286
52.5251503	-1.936565061142578	1.2306322023787195	-0.44743758237859205	0.284333900511818
53.0476036	-1.2808613924302092	1.3211977813657918	-0.29593920508558397	0.305258807462677
53.5394707	-0.2405968702771218	1.0945872225045683	-0.05558918939761111	0.25290111360936296
54.0466995	-0.0844869822907328	1.343526190327096	-0.0195204653110517	0.31041771976801
54.5820446	-0.2807738465227318	1.2183301151742736	-0.0648719599480679	0.28149153994908
55.0699692	-0.32205066266873766	1.0938073202843417	-0.0744088452276969	0.252720919527113
55.561245	-1.5281341405563895	1.47611560380355	-0.353070836152196	0.341052108359064
56.0781822	-1.3774254276879307	1.2088784427841468	-0.31825003746988	0.27930775922901596
56.5275536	-0.4884299400676596	1.302631188090949	-0.112850281113847	0.300969051453653
57.0625076	-0.6094990301019122	1.2969281152909777	-0.140822933328145	0.299651373490258
57.5069771	-1.0256476302528594	1.1119538184673836	-0.236972826403215	0.256913613817935
58.0263176	-0.3367458284362801	1.3448458244052686	-0.0778041194560786	0.310722617286513
58.5193634	0.11197640131368553	1.4240660910865985	0.025871813600566503	0.329026223661797
59.034874	-1.0778073303096154	1.163583785473531	-0.249024169556756	0.268842563729841
59.5337944	-0.944474348159724	1.3217464817363447	-0.218217981641088	0.305385583047023
60.0523109	-1.4106159280951682	1.1966115501053791	-0.325918603612134	0.27647353025648297
60.500267	-1.68624098813934	1.1361364771709523	-0.389600951798441	0.26250094499669097
61.0485725	-0.6622625210012069	1.0920664744520006	-0.1530137805553	0.25231870228889797
61.5567589	-0.5333749548615991	1.4547825962049972	-0.123234692752207	0.33612318057022494
62.5717239	-0.22899342252255822	1.333708840441727	-0.0529082473963674	0.308149450353151
63.0092278	-1.473591174024753	1.2011147937338356	-0.34046884638673297	0.27751399126779003
63.5167885	-2.5528591174634925	1.3291552818354284	-0.5898304862513031	0.307097364216257
64.0042648	-0.9805648576403514	1.225935585735044	-0.22655658623167998	0.283248761241999
64.5247803	-1.5662108837717739	1.2923782936748591	-0.361868354124089	0.29860015077380103
65.0550308	-1.291098217476807	1.2040356350484092	-0.298304392985535	0.27818884294333
65.5606842	-0.9355522653069276	1.4849872700813602	-0.216156561004344	0.34310188039650397
66.0192947	-0.6445617746349017	1.279422082950712	-0.14892407589246598	0.29560665692248694
66.54551695	-2.5353787511649286	1.3136350486288724	-0.5857916997459289	0.303511460616511
67.0322571	-1.4553424522959109	1.3103131639963173	-0.336252533650493	0.302743949078296
67.5617447	-0.3658043144045051	1.2363210386424281	-0.08451799598421018	0.285648289165964
68.04216005	-1.335630896717022	1.1411151852831078	-0.308593535723826	0.263651260659082
68.5289688	-1.017116026535888	1.1951081679530058	-0.235001624806362	0.276126178293388
69.0313416	-0.4696206337638167	1.244874436679882	-0.108504446983263	0.287624526275572
69.529007	0.14495831001268514	1.3927802124539201	0.03349218525067	0.32179771470081403
70.0492477	-1.1012151634712308	1.3899916053611576	-0.254432479604638	0.32115341534789
70.556839	-1.1906845548870857	1.0035273053025568	-0.27510411568608995	0.2318619912881
71.02095035	-2.0954989792131804	1.3598217739765548	-0.48415879019461594	0.314182765775429
71.5143356	-0.25646177811095383	1.036963639179372	-0.0592547290421407	0.239587356520404
72.022522	-1.6303869725419662	1.2587004605312622	-0.376696048055997	0.290818987856078
72.9654922	-2.381845863111589	1.1683745669797403	-0.550318383809072	0.269949459510341
73.0229034	-0.034023354658078236	1.2577265035545866	-0.007860994633269969	0.290593958001038
73.5550156	-1.5528238425863876	1.0676570404828023	-0.358775318179478	0.246678975361281
74.0673447	-0.759616658692615	1.1886255450305743	-0.175507163750748	0.274628387598882
74.5	0.25610034201916876	1.4169295677458396	0.059171220310966305	0.327377351225622
74.5720901	-1.271316535888276	1.3600341748516904	-0.293733894445128	0.31423184036423196
75.0194321	0.06300230671166918	1.3630718077100126	0.0145564950876021	0.314933676377673
75.5262909	-0.6426669268075911	1.414512860656387	-0.14848627695256	0.32681897825942596
76.0273819	-0.016421125601909753	1.3881002448206134	-0.0037940521011562097	0.320716422135192
76.5026169	-1.9223294861968223	1.3456715625997897	-0.44414849523904604	0.310913401633937
77.03461455	-0.3057445306715413	1.158300431599999	-0.0706413620559892	0.267621860572763
77.5042725	-1.0812190920925235	1.1121152683586064	-0.24981244694253898	0.256950916333845
78.0134201	-0.674429388918169	1.199569243485276	-0.1558248991049	0.27715689649182
78.5162277	-0.8245629499755021	1.3350502892112486	-0.190512810676406	0.30845938809103696
79.02672195	-0.2165150442226231	1.4850188252167038	-0.0500251553017314	0.343109171116425
79.5788803	-1.51157941734179	1.5701969135139588	-0.349245916721027	0.362789314409348
80.080307	-0.47288594212712615	1.3086152553990833	-0.109258886743184	0.30235165236021
80.5661392	-1.6023958071947955	1.3150689247168488	-0.370228772774521	0.3038427534107
81.0487366	-0.9369376458634924	1.255071088651135	-0.216476649050618	0.289980432306264
81.5259933	-1.6611093489838311	1.5034679969672886	-0.383794361516203	0.34737179723243
82.0007477	-1.659503021420396	1.1456900323809192	-0.383423224322874	0.264708265438456
82.5099792	-1.4309336958138636	1.3675611251532664	-0.330612963254262	0.315970919785418
83.5621109	-1.6440908458677195	1.3907166628152312	-0.37986228712181996	0.321320937710472
84.0791855	-1.0539807890877433	1.41622273877518	-0.243519118260174	0.32721404049977404
84.5308609	-0.22279671450549643	1.1912964137866802	-0.051476516488125	0.275245483860227
85.1126556	-0.9130661134966975	1.2721166514012914	-0.21096120268416899	0.293918758748399
85.5410309	-0.9851561851040783	1.4449991205540662	-0.22761739875045298	0.33386273769621705
86.0541992	-2.596243851912191	1.3096608687839708	-0.5998543997687811	0.30259323821468204
86.5553665	-0.8414147648071844	1.3070348789294344	-0.19440637223975	0.301986511089712
87.0615921	0.15526816829086773	1.6205324204243137	0.0358742472609875	0.374419183176309
87.5375671	0.7618220979530205	1.2842224881313367	0.176016723915061	0.296715776224262
88.0838242	-0.5659969308344664	1.092613957892123	-0.130771903019287	0.252445196705097
88.5532837	-0.8595536712541555	1.259751900579792	-0.198597312482592	0.291061919943809
89.0557175	-2.4948356970347834	1.241514697630465	-0.5764243479919251	0.286848268587226
89.6032066	-0.4935677140272273	1.2987851368199193	-0.114037348465935	0.30008043277672697
90.057785	-0.8990566646519543	1.2933270792914475	-0.20772436130593502	0.298819364861156
90.5779419	-1.617374372175575	1.2862528448996295	-0.373689525546001	0.29718488410088295
91.0470657	-1.06249353567481	1.2305543714372165	-0.245485962973396	0.28431591790488203
91.6152191	-2.1398034166151785	1.157426736857599	-0.494395198336823	0.267419996007962
92.103241	-0.8429735801916959	1.0721084331539683	-0.194766531885824	0.24770745636352998
92.5652161	0.015179939888036063	1.2142181660206137	0.0035072798432849296	0.280541486359302
93.01854325	-0.36129814460781456	1.2673860270140542	-0.0834768588904587	0.29282576209084404
94.1541519	-1.311578700617004	1.4533167357281478	-0.30303634754057	0.335784497878367
94.5490723	0.00964940088404922	1.1047780386776658	0.00222946529894198	0.255255671296294
95.0443802	-0.7468261396129491	1.4620211655519917	-0.17255195245978502	0.337795630431831
95.5475464	-2.189991760645797	1.511987020115075	-0.505991065559273	0.349340092126289
96.08877565	-0.8268316856173015	1.347086253455804	-0.191036995280885	0.31124026173749303
96.6232758	-0.6815512233612802	1.1070307976573845	-0.15747037771507702	0.25577616454064306
97.1040726	0.3588347961497082	1.3772884132827787	0.08290770957512361	0.318218380700158
97.5954819	-0.27919924561635556	1.2852408499281676	-0.0645081531042408	0.29695106568058
98.0031509	-1.75015875677779	1.152916601559779	-0.404368961634242	0.266377942697
98.5047379	-1.4580208263127103	1.5216852615983092	-0.33687136397994	0.351580841900026
99.0411072	-0.8371780242886373	1.3063814084634384	-0.19342748597725298	0.301835528687247
99.5393219	-1.0080984161779023	1.3708346610317852	-0.232918132824415	0.316727260488193
100.0107193	-0.4346993874800484	1.2812193987673257	-0.100435997167465	0.29602192138217
100.5035706	-2.2972372653764994	1.3382328480889019	-0.5307698196122691	0.30919470882906297
101.0623627	0.14619952600075747	1.3868519812603668	0.033778964503304594	0.320428014562023
101.5339737	-0.6566976671521572	1.2941119297916146	-0.151728037668335	0.29900070222873
102.01301195	-1.5666100719136709	1.23094011322689	-0.361960585353862	0.28440504239507197
102.5245285	0.18367305329527572	1.4261777581256985	0.0424371112355217	0.329514118034014
103.0151443	-1.0013897608086126	1.1116339984111445	-0.23136811800711002	0.256839720347671
103.5106201	-0.9176475960587657	1.3564921494666837	-0.212019740567772	0.31341346596164105
104.4521027	-1.7288803965060713	1.3435376702284292	-0.399452659947305	0.31042037216497903
104.5084229	-1.0239694758323388	1.3891184269126489	-0.23658509382874998	0.32095167007125297
105.0474091	0.7690512203108059	1.2956148296036314	0.177686991077982	0.299347942748524
105.539505	0.09823790400636112	1.3476677299273045	0.0226975747670531	0.31137461014222195
106.01239775	-2.4248156308132867	1.1390803417285131	-0.560246420497121	0.26318111612386597
106.5322189	-0.9453290368824897	1.0770672085582422	-0.21841545492173	0.24885316663320597
107.0126648	-0.5002345404411246	1.232997617651217	-0.115577698827834	0.284880422656663
107.5031357	-0.053103625258052525	1.2970443692992233	-0.012269434256437	0.299678233632184
108.0517197	-0.0726863486158622	1.541472081025985	-0.0167939640909459	0.356152527522846
108.5636673	-0.812673654147638	1.3203843850089523	-0.187765824330249	0.30507087466004496
109.0479355	-1.3804244801994672	1.560920529939521	-0.31894295960924596	0.36064603364742304
109.56308365	-0.3385000919321955	1.5916345871427637	-0.07820943680544991	0.36774242497235404
110.05875775	0.13149716208765105	1.3632597315796238	0.030382027164855798	0.314977095627342
110.5107574	-1.0202812042456206	1.2268218621572304	-0.235732929677372	0.283453532766395
111.0536346	-2.6452469652221176	1.2362924678918572	-0.611176422967672	0.285641687979245
111.5436707	-0.7113976271917303	1.198911760072325	-0.16436630031563898	0.277004986909928
112.0182724	0.5932837797846573	1.2413937564438962	0.13707644809757102	0.286820325486726
112.5145721	-0.8271627559590082	1.3699160155057364	-0.191113488096057	0.31651501017887695
113.0589447	-0.03138742174661348	1.3636871941739759	-0.00725197019464765	0.315075859585038
113.5187683	-0.7818136754008066	1.380870489820817	-0.18063571826782202	0.319046008802221
114.0405426	-1.6137775438796442	1.1591306380224953	-0.37285848909426794	0.267813677290936
114.8642654	-0.37254865226791295	1.1241857310825656	-0.086076255135373	0.25973976075109
115.0409241	-0.3120149941378729	1.3148761742346675	-0.0720901339408405	0.30379821898659004
115.5516129	0.7580716434611361	1.133470656034723	0.17515019258887898	0.261885014972866
116.0463257	-1.1463404730181024	1.1726453576083642	-0.264858547808009	0.270936212949231
116.5298843	0.1624729629853525	1.313987543984581	0.03753889358985	0.303592903617277
117.0193787	0.9944689263859464	1.197170200873456	0.229769079852258	0.276602604850504
117.5138855	0.3695141341556213	1.393080314375703	0.08537513877471391	0.32186705235491303
118.0126114	-1.6843419562415067	1.4331061922735107	-0.389162186141518	0.33111491208269794
118.5085373	-0.5205129597910811	1.3978088368902764	-0.12026296714670501	0.322959563381057
119.0652313	-0.24686607334246993	1.234893819038421	-0.057037670070573795	0.285318534332546
119.5494232	-0.47482177158011796	1.2969179160605124	-0.109706154365493	0.29964901698847396
120.0502701	0.5911776679316597	1.1928411128675906	0.136589837234537	0.27560238197645
120.5538864	1.2028310780377212	1.14653929499112	0.2779105336381	0.264904485031971
121.0414581	-0.2766284494524162	1.3495456852703402	-0.063914178316891	0.311808506124011
121.5282593	-1.3637173484120604	1.359842089052916	-0.31508282663182496	0.314187459513241
122.016571	-1.0367269413252937	1.4783068102891992	-0.239532668187072	0.341558380083213
122.5079956	-0.7232816151043352	1.3280010061292595	-0.16711206028380401	0.306830672256493
123.0204697	-1.1385800282360377	1.1785880763977503	-0.263065520183406	0.27230926040383596
123.534111	-1.3284296520253112	1.4646931303847024	-0.306929709612518	0.33841297993840697
124.0258484	-1.0420118674503411	1.3073604209957344	-0.24075373460817404	0.302061726613337
125.2573547	-1.1513428683413864	1.1810879381850223	-0.266014336329894	0.27288684601498897
125.5526047	-2.1662100492839826	1.1695647798751703	-0.500496372068171	0.27022445465051603
126.055748	-0.03497216336042424	1.3859373162742847	-0.00808021405452039	0.32021668394459596
126.5494156	-0.3534877238728437	1.2730094017245281	-0.0816722844709692	0.294125026048327
127.0479736	-0.4089642716279105	1.4161673140536168	-0.09448997539408871	0.327201234783138
127.5414429	-0.4571861374183011	1.3461578377358683	-0.10563149368333599	0.31102575405401495
128.0422821	-1.8539157203463517	1.3726446325636048	-0.428341698654846	0.31714544901313396
128.5332489	-1.6151242867103492	1.2883663812929327	-0.373169650009203	0.297673210381814
129.0082245	-1.5158714802388478	1.393751051749664	-0.35023758505410296	0.322022024224972
129.5444031	-1.2863135696254735	1.444174585068013	-0.297198914367703	0.333672231230998
130.0360107	0.5107216497871927	1.355339288339486	0.118000714168809	0.31314710083612995
130.5117188	-0.6708630914013353	1.3653435078598728	-0.15500091669863197	0.315458545922899
131.0126648	-0.4985097020309801	1.3602595231197074	-0.115179180056782	0.31428390640955
131.5035553	-0.9826190278296164	1.3714689562740412	-0.227031196128203	0.316873812512395
132.0477295	-0.810339055856551	1.3161547617060692	-0.18722642235706	0.304093632809003
132.5262909	0.2506679939703165	1.514711235563733	0.057916092493993605	0.349969513981864
133.0587311	0.7393609976758212	1.2905227289381755	0.170827153676887	0.298171428074839
133.5612335	-0.2648267092363765	1.2816266075517295	-0.06118742143374789	0.296116005757476
134.0413818	0.0977262797248881	1.4002115923949772	0.022579365502525	0.323514712875201
134.5410767	0.07538368215511086	1.2121901269859918	0.0174171749615159	0.280072913988134
135.6850433	-0.26802211364849926	1.4438575278209445	-0.061925710094206596	0.33359897609955397
136.0531464	-1.317268873752475	1.551639992696182	-0.30435104507495003	0.358501793192685
136.5584869	-0.40793057630295254	1.2861492647352986	-0.09425114317182279	0.297160952212799
137.0428162	0.388808159427139	1.2188596484392695	0.08983296577730679	0.281613887030845
137.5562592	0.47177717338878045	1.152496086080782	0.10900270903263	0.26628078384959
138.0556793	-0.48092897660216655	1.3489480546281485	-0.11111720587364299	0.311670425346317
138.5422516	-0.048536822039774316	1.2769135909051232	-0.0112142879914416	0.295027077315886
139.0442963	-1.0591779959277687	1.109291001281178	-0.24471991740205798	0.25629837784780496
139.5283051	-0.0824093591479297	1.1793582539402245	-0.019040436679552398	0.272487207628291
140.0296936	-1.0205626388913966	1.458559769459572	-0.235797954313017	0.33699588518684903
140.5624542	-0.22820401021772643	1.3432136643974555	-0.0527258560374293	0.31034551158394497
141.0205231	0.23640197862329443	1.380102669752843	0.0546199721905108	0.318868606265219
141.5178223	-0.7893971789369223	1.3791888461949853	-0.182387864145202	0.318657470057274
142.036377	-1.232880698720929	1.2106754590436244	-0.28485340888648203	0.27972295447691603
142.5197144	-1.388996873642573	1.28569020534404	-0.32092358555068395	0.29705488790940204
143.0110016	-0.7345819434215426	1.555646545841598	-0.169722967442974	0.359427495349058
143.524231	-1.2199159482668314	1.3800094056770225	-0.28185794195602903	0.31884705787862194
144.0238342	0.268056450713541	1.1797622578261246	0.0619336435706885	0.27258055152135496
144.5123291	0.2176998879745907	1.3806645961494515	0.0502989099173207	0.31899843768344405
145.0441589	-0.8939903673969807	1.3584436972099727	-0.206553808433294	0.31386436524804995
146.0732727	-0.3807657520718697	1.1434952854819702	-0.0879747915410008	0.264201175712372
146.5495758	0.07732702684253917	1.253139937604464	0.0178661789563304	0.28953424561578406
147.0033264	0.08343898558970315	1.4420374303452455	0.019278328798492297	0.333178448005476
147.51157375	-0.5513240438119306	1.2273236931983253	-0.127381776228502	0.283569479331938
148.0311279	-0.13485874011071233	1.3607122947279726	-0.031158709742578297	0.314388517939437
148.5155029	-0.5498049355328113	1.3547273572155665	-0.127030790790719	0.313005715974778
149.0144043	-0.7620268658072284	1.4268188485152289	-0.17606403491714098	0.32966224005673
149.5104523	0.6108234488500277	1.2478258544816947	0.14112893633037	0.288306442557307
150.0370483	-1.3379465990704322	1.1717045726471735	-0.30912857184696396	0.270718847389447
150.5305481	-0.2946548279580689	1.4479932317230209	-0.06807911931445909	0.334554518153115
151.0202484	0.21275452298029446	1.2273242323054174	0.0491562980828791	0.283569603891024
151.5013123	-0.47569658954196636	1.3013007306267679	-0.109908278446798	0.300661653224089
152.04599	-0.8294331201834978	1.5612705744188664	-0.19163804897970999	0.36072691038051397
152.5619202	-1.248464295319967	1.2204482798411056	-0.288453952409106	0.281980935578808
153.037735	-0.7979226855550319	1.1723065973077045	-0.184357657025545	0.270857943391975
153.539032	1.8444997903815352	1.135477106667149	0.426166176115563	0.26234859940808497
154.0256195	-0.02283348847265933	1.4105730645050976	-0.00527560942024243	0.32590870010747097
154.5023651	-0.8990710478865614	1.5149912401810153	-0.207727684509399	0.35003420821368997
155.0516357	0.4310407820171555	1.194128834877863	0.09959068728553	0.27589990630682903
155.5594482	-0.8463654546533246	1.3094113409094117	-0.195550214365331	0.30253558554337806
156.5410004	0.08971177036743684	1.3197418456986743	0.020727637015420703	0.304922417868511
157.0321655	0.028329923875362987	1.5239706433937212	0.00654554442920868	0.35210887254865697
157.5185089	-0.048712580036139576	1.2518897097706803	-0.011254896352376802	0.28924538420307194
158.0111389	0.6207063195799913	1.2274697170864117	0.14341234414098397	0.283603217715825
158.5066528	-0.1472195579627857	1.1845305525031042	-0.0340146398463109	0.273682251787019
159.0072632	0.037443326620174085	1.2669767744071188	0.008651168956470811	0.292731205496437
159.5067749	-0.8396539817935265	1.4677652595781119	-0.193999548575246	0.339122786227199
160.0467834	-0.4542406198081605	1.4074190624235179	-0.104950940623292	0.32517997733201903
160.5396881	-0.07997004624699071	1.2528201877584273	-0.0184768407080248	0.289460368367378
161.04788205	-0.26620095625590623	1.3181776378829977	-0.06150493710949109	0.304561012317297
161.5476532	0.5226548695180506	1.3917991467400064	0.120757849001768	0.321571042393234
162.0450897	-1.2710531194862955	1.4215704001863463	-0.29367303287098	0.328449601721652
162.5296936	0.18058848515436876	1.4447573783682777	0.0417244309650044	0.33380688388508595
163.0134735	-1.4665420559379512	1.0120470207899388	-0.33884016867383504	0.23383044614495802
163.5151978	1.432053845060734	1.2166321269472948	0.33087177039737303	0.281099224832779
164.0030823	0.36874142031892115	1.4807774202809931	0.08519660554704139	0.34212920715425205
164.540863	-0.7340318483716258	1.4698410112924272	-0.16959586962212	0.33960238247072694
165.0402374	-0.6369220083560975	1.2802454299324233	-0.14715893067616798	0.295796888787322
165.5482483	-1.870512536978078	1.5116882921897403	-0.432176343644516	0.34927107192997203
166.0262909	-1.486516035995056	1.1957079133100614	-0.343455097201956	0.27626474766964504
167.0108795	-0.19504695720354592	1.1625847092757577	-0.0450650178155982	0.268611730153674
167.5333405	0.18780966153589598	1.4163837922277303	0.0433928622338065	0.32725125141971095
168.0437622	-1.4226223014634607	1.5432349743573976	-0.328692640374872	0.35655983876997405
168.5299683	-2.109190080944435	1.300880805744063	-0.48732207842161596	0.30056463083219104
169.0365601	-0.605808783788084	1.2142396850153312	-0.13997031292195702	0.28054645825886
169.5282898	1.122513110940879	1.3936346496552223	0.259353306855246	0.32199512986817197
170.0227051	-0.6832179700610662	1.2540451456342703	-0.15785547456968502	0.28974339123166504
170.5183716	-0.6052676609051082	1.3588981702021707	-0.139845288093519	0.313969369877621
171.0145111	1.3847587189643717	1.277382811693483	0.319944372550816	0.295135489379781
171.5223846	-0.5918837177852478	1.3404739646078427	-0.13675296794770903	0.309712512117568
172.0134277	0.45018033162226684	1.2985366177572986	0.104012823146059	0.300023013188413
172.5502777	0.6286024696802799	1.3372059272854855	0.145236726074678	0.308957441839797
173.0573273	-1.3012341101338967	1.3725838481199248	-0.300646260757879	0.31713140494868597
173.5522003	0.6163487347683574	1.4938710772989867	0.142405537164937	0.34515445756188307
174.07842255	0.15727035350704288	1.4716537705231876	0.0363368461845016	0.340021215085195
174.5283203	0.40424292904306885	1.5173617637886239	0.0933991232692981	0.35058191062412897
175.0331726	0.8339022873005668	1.4506818556285113	0.19267063671468	0.335175716688778
175.5084839	0.0843200899688496	1.23476111311923	0.019481905337767398	0.285287873025657
176.0005951	0.25521135612994383	1.4934732493368954	0.0589658227722909	0.345062540597598
176.5488739	1.0811399612216739	1.2391761969126376	0.24979416399080404	0.286307964969976
177.3802948	-0.6311340678356084	1.4469893336922761	-0.14582164427903	0.334322570506819
177.5553284	-0.07246913978775779	1.3256064162422712	-0.0167437786389472	0.30627740940397097
178.0395203	1.9980455955685215	1.2443799569648952	0.461642476517629	0.287510278212004
178.5632324	2.738795974286165	1.3881315788539208	0.632790642540979	0.320723661770147
179.0017395	0.943415182901758	1.2328867009362854	0.217973264666754	0.284854795680441
179.5680389	-0.15231209818865438	1.3147893610487933	-0.0351912560791185	0.30377816105887795
180.0008392	1.1322586661784808	1.395772493811398	0.26160498833083595	0.32248907238522695
180.5651855	-0.38553645540095954	1.2680563101036062	-0.0890770483185521	0.292980628999845
181.0296326	0.671149301817264	1.661519632553434	0.155067044761729	0.38388915631146
181.5386047	-0.9957364972792251	1.5546883978303656	-0.230061948327148	0.35920611810833997
182.0308685	1.012211954311577	1.4531004528193892	0.233868553543287	0.33573452635727197
182.50218965	1.0803100249850972	1.227293714968723	0.249602409698282	0.283562552951386
183.0188141	1.085215414105825	1.5273799440592861	0.250735785226347	0.352896581300617
183.5466766	1.3647844092738457	1.3751964037857405	0.31532936786187604	0.31773502814441396
184.0249176	1.1226407012865662	1.6638514143717709	0.25938278622413197	0.384427907547019
184.5172119	1.3286098637707926	1.4796980530709516	0.306971346998905	0.34187982257913496
185.0082855	1.1830838438997084	1.4483339514399984	0.27334799407841004	0.33463324042766807
185.5132904	0.5077931079743784	1.6694229835221996	0.117324083316114	0.385715201984342
186.0106049	0.753071904173362	1.4244068450047487	0.173995017736078	0.329104953838429
186.5506744	1.019439165497143	1.492602225276539	0.23553837913556602	0.344861293085919
187.00938415	-0.4982310696510192	1.2972440565395869	-0.11511480287629701	0.299724370773586
187.8505554	1.3324420228103193	1.2119001774404057	0.30785675591717004	0.28000592201028
188.0252075	1.5811982979538386	1.645459186611529	0.36533115147713696	0.380178438170171
188.5176392	0.8934123274665057	1.456901702878067	0.206420254031121	0.33661279384768505
189.0522461	1.6185241827925587	1.2228788863978135	0.373955185860224	0.28254251997546403
189.5579071	0.5252975287537098	1.151620649313167	0.121368427537537	0.26607851679505795
190.0407104	1.8378093792095	1.4986254900968277	0.42462037656562795	0.34625295046076904
190.5222321	0.7599958393681328	1.505995299725438	0.175594772315078	0.347955722998073
191.0158386	1.4880664987723995	1.2556779632558597	0.343813327003052	0.290120648873935
191.5046082	-0.027878496112352685	1.2943628158150469	-0.00644124339076036	0.299058668696281
192.0534515	0.48903413649149036	1.8079854576784573	0.112989878895809	0.41772964843329996
192.5326233	1.5090974167471412	1.4642448714404586	0.348672457885166	0.338309411046085
193.0476532	1.929060250578806	1.3713354794086219	0.445703618277803	0.316842973080679
193.5123596	2.2949365736850282	1.4331577671004678	0.530238251657809	0.331126828292666
194.0740967	1.969532293482804	1.2137677350187581	0.455054563099767	0.280437415619546
194.5516205	1.3874108957999718	1.7615831704021592	0.320557150099669	0.407008538333599
195.0263214	1.4664819282935377	1.561306646907662	0.33882627636089896	0.360735244821479
195.5137634	1.314430901116604	1.4692385081123727	0.30369533996050296	0.33946317590769004
196.0558014	2.7475928210390594	1.380212249854877	0.6348231277503051	0.318893924421017
196.5604401	1.5762444381863785	1.454471941961964	0.364186576950688	0.336051404833769
197.0211487	3.4848925947577514	1.473284088442313	0.805174041778639	0.34039789517866503
198.2567215	1.0917981509709795	1.5257927927888235	0.252256706948771	0.352529874732594
198.5275269	1.5798586517126063	1.551513615930577	0.365021630208037	0.358472594217858
199.0104523	0.10556429747598237	1.5132220815447355	0.0243903161302932	0.349625449386556
199.52034	1.4358258549007328	1.6977677753053475	0.331743282022457	0.39226418159930704
200.0225983	1.1419116199615262	1.739332853197376	0.26383527451649597	0.40186766889573405
200.5447083	3.104929298078345	1.4123460373878713	0.717384655163078	0.326318340204883
201.0214691	1.99728407855139	1.3832508881670635	0.46146653028172796	0.319595992741575
201.5167999	3.3487974794663224	1.3930677604852346	0.77372967123753	0.32186415181595707
202.0672455	1.5727878583570034	1.4253859942467768	0.36338794448892	0.329331183350895
202.5452271	4.414952781814569	1.530272645160436	1.0200616744811302	0.353564931263762
203.0412445	1.6992659144896924	1.1597896228979714	0.39261032219027403	0.267965933781267
203.5415497	3.020534268901542	1.4174709686669982	0.697885435344788	0.32750244029395303
204.0260925	0.9715998020458787	1.5604476396116465	0.22448523687112	0.360536773747366
204.513031	2.0297855777751437	1.2573037761057335	0.468975904755197	0.290496288084589
205.0075073	2.281375086733224	1.4574081852452456	0.5271049105390789	0.336729815088249
205.5440979	1.6551320819498971	1.3653620389275947	0.38241333179272097	0.315462827470835
206.0372925	3.1092322935884993	1.2240404278784214	0.718378849443808	0.282810890670745
206.5119629	3.61311814441412	1.4924394750271783	0.834800172647468	0.344823690126139
207.0072021	2.737181244760049	1.4539050076002824	0.632417564099228	0.33592041634014796
207.5525665	3.840996956275422	1.501972632276269	0.887450892574414	0.34702629767987203
208.6702271	3.56555351986142	1.274202823834427	0.823810507986241	0.29440076266793497
209.00816345	1.0404447377750097	1.4071947074618074	0.24039165397	0.325128140787161
209.5167847	2.597736752761308	1.5428815172779193	0.600199330058015	0.35647817356579903
210.0077057	2.9895868918534205	1.3051378064767352	0.690735136165477	0.301548198156744
210.5548553	1.067376877638652	1.625601635886551	0.24661424457160905	0.375590410292036
211.0054932	3.3642174152592657	1.3895521431466804	0.777292401418956	0.321051878913748
211.5417786	4.395648466783553	1.1084145546524575	1.01560147006029	0.256095877467876
212.0423737	3.3490971979721764	1.7793901393148848	0.773798920304522	0.411122785399019
212.525589	4.017301846710925	1.405592116750264	0.928185611753661	0.324757866982318
213.0237732	4.140236369904586	1.4250184337075467	0.9565892667365631	0.329246259584402
213.5403442	4.2014937614997665	1.3856463856628702	0.9707426043899828	0.32014946529440796
214.0114746	3.5637333265787583	1.5631791502263246	0.82338995775625	0.36116788112929504
214.5536346	3.4149020726165826	1.6416671933563594	0.7890029403554919	0.379302309436604
215.0553894	5.88618249949116	1.1982840933292973	1.35998491342068	0.276859966380706
215.5125885	3.8186667774265914	1.5009798071204568	0.882291571341846	0.34679690838830896
216.0083313	2.9619873759268436	1.3095905224072613	0.6843583503146979	0.30257698489412205
216.519989	3.8833362645910454	1.497014130488688	0.897233263501393	0.345880650628517
217.0206757	3.7352851595193406	1.6028724301926123	0.8630264971753091	0.37033889509683704
217.5201111	4.977626455387156	1.497724761654883	1.1500657488202901	0.346044839840305
218.017395	4.963393429937694	1.4610381090204378	1.14677725073426	0.337568498151772
219.0722961	4.1760611931924565	1.305431715603234	0.964866485324617	0.30161610498396
219.5061417	4.801204983675314	1.3093994592487874	1.1093040938848	0.30253284032112293
220.0256805	5.165498521364899	1.371137877035076	1.1934730294142901	0.31679731764153796
220.5196381	4.7544387744749965	1.4891855136694119	1.0984989007098	0.34407187205801104
221.0624084	4.621147823589501	1.64905779496183	1.06770242399243	0.38100988589815804
221.5496368	4.536851775764184	1.5319249200300677	1.04822607352023	0.353946684445169
222.0391235	6.617623761116474	1.4424690544776675	1.5289822357004101	0.333278173474133
222.50047305	6.099156019442535	1.383476970048929	1.4091918101006602	0.319648228286185
223.0388031	7.770717035726517	1.481509524935133	1.79540099817882	0.342298357751394
223.5258789	8.561852431961155	1.7364232237496309	1.9781904722471502	0.40119540768859
224.0332947	5.866459703215843	1.4457615132837507	1.35542802015629	0.334038886262892
224.5232697	8.258075568126946	1.4784805920187105	1.9080037337461802	0.34159853183358496
225.0452805	5.666534232800505	1.508910567042318	1.3092358364112402	0.348629286818068
225.53308865	6.776301641511769	1.3345920953751347	1.56564428677508	0.30835352377157504
226.0527191	6.771312484031642	1.5158646071507582	1.56449155681738	0.35023599704759595
226.5213776	5.603457738287224	1.4269356070683115	1.29466220045331	0.329689216772236
227.077652	8.749438479980839	1.55680549105341	2.02153166924487	0.35969526618417597
227.5299759	5.800892671895862	1.460193211635896	1.34027895309616	0.337373287130628
228.08966065	8.097506122119546	1.7315216205497335	1.87090464207764	0.40006290688624296
228.5531616	6.630598387981561	1.6092775220880193	1.53197998454617	0.371818772478753
229.5425415	7.689588230469826	1.362778636225257	1.77665642965712	0.314865939980382
230.0219574	8.273428337377139	1.2811868019591395	1.9115509452981998	0.296014389986845
230.5009766	6.746813661036654	1.5740563391089848	1.5588311768219199	0.36368102318394996
231.0366669	7.89081003851389	1.3644212774428202	1.8231481283455	0.315245467335207
231.5066071	8.369344629441915	1.6865025901666244	1.9337121185493902	0.38966139416672596
232.0599365	8.152386336453988	1.1900424354310775	1.88358455194224	0.274955755900633
232.5540771	8.308837255372657	1.5108715010046745	1.9197320702087202	0.34908235476240196
233.0338135	7.383513223231916	1.486243231125193	1.70593871197598	0.343392066450301
233.5414581	10.539466186836187	1.7876286826974856	2.435112232902	0.41302627627954597
234.0799103	8.600989909893164	1.4728668308187551	1.9872330698121201	0.340301489049039
234.5062408	9.042661704373055	1.5413235834355452	2.0892800208246003	0.356118217597407
235.0199127	7.175240768171159	1.4767947353787065	1.6578179823200099	0.341209019684277
235.5183868	12.274380112538848	1.3896126028079476	2.8359589217776904	0.32106584793818804
236.0299072	9.145828083494676	1.6924812410509664	2.1131163050699104	0.391042743624718
236.50649265	8.964764092567382	1.7632756071494278	2.0712820099140696	0.407399570797068
237.0396729	9.217374057257436	1.8042152634869175	2.12964678895174	0.416858556308378
237.5334625	9.852510645358265	1.5676874433674532	2.2763932036022	0.362209508815447
238.0171509	9.310549537613191	1.4323414442361841	2.15117470583089	0.330938219329216
238.5343933	11.844668770796138	1.6363782480441513	2.7366753977030696	0.378080314394294
239.0319672	9.872195211929126	1.2052617578592528	2.28094126400738	0.27847213496237505
240.0352478	9.958251762969581	1.6468555306836272	2.30082437349747	0.38050105930401495
240.5277863	8.781764277715281	1.8075466590397988	2.02900044841319	0.41762826531637204
241.0434265	11.473397340682418	1.566774597945488	2.6508942409376397	0.361998598602883
241.5320129	10.055203179655297	1.5925234498754697	2.3232247092055003	0.367947794056083
242.029129	14.692783366859546	1.5214047497093164	3.39472378180844	0.351516030464584
242.5645294	11.128769487813006	1.6703250284788766	2.57126900324114	0.385923616781609
243.0233917	12.318571625879272	1.9213653270382507	2.84616923915222	0.44392572914066103
243.53479	11.958835858614362	1.8196633928953587	2.7630533628877	0.42042780054058904
244.0017395	13.492104063200058	1.58371348593361	3.11731040922366	0.365912278159363
244.5263062	12.322665752032465	1.7192113849086317	2.84711517479089	0.397218663651515
245.0283661	11.725613617751309	1.4259834570374792	2.70916805962445	0.32946922534700296
245.5662537	12.955970986569223	1.9531371929768568	2.9934384606616202	0.45126652401942396
246.0535431	13.544941029868864	1.6713043628322748	3.12951823280825	0.386149889063505
246.5428619	15.022930800568446	1.9031658529851394	3.4710033618397205	0.439720794933038
247.0270081	13.845089284219169	1.5390594440769678	3.19886659190878	0.35559509495046
247.5483398	14.44246556218344	1.846409469873569	3.33688859950658	0.426607401867374
248.0388031	15.510052143972088	1.5930580140811914	3.58355129559669	0.3680713035217
248.5252838	13.755752424172247	1.9393733207866084	3.1782255768049	0.448086422394881
249.0254822	15.136020691637476	1.3260291026283741	3.49713244392774	0.306375069832994
249.5410614	12.53618272048442	1.779240091746764	2.89644763362632	0.411088117355859
250.4484863	15.319827016498714	1.709416118958156	3.53960034716115	0.39495549666395696
250.5540161	12.602820428513889	1.5669186368107026	2.91184407734733	0.362031878353155
251.0013733	15.390897132763069	2.1093618080378715	3.55602088558702	0.48736175545445
251.5123596	14.713603581577683	1.507627136929552	3.39953423033145	0.34833275411780895
252.0517731	17.337070101281707	1.8366288937961317	4.00567834631327	0.42434762893117506
252.5027466	15.203224664697325	1.8079634544278815	3.51265972149537	0.41772456464787
253.0523224	15.266665516990027	1.5628596351801634	3.52731754123169	0.3610940581307
253.51358035	16.116783282466432	1.5564964212950687	3.72373471582299	0.35962385653818296
254.0331116	16.06699732622609	1.4127014096698267	3.71223181909953	0.32640044791087897
254.5122681	18.79242516064203	1.8395269069267943	4.3419337927884	0.425017206222898
255.0598755	16.834844581744793	1.9732847857011009	3.8896406377026196	0.45592156523656
255.5591583	18.450622290336966	1.9816483703582288	4.262961258889059	0.45785394653068295
256.0050964	18.3878119921524	2.369114153970707	4.248449126799059	0.5473767603790889
256.5057678	16.67302111585182	1.64262785398634	3.8522518084791098	0.37952426721039095
257.03927615	18.71881721058212	2.022472661521836	4.3249268954321	0.467286277262596
257.53105165	17.01366550080596	1.8567358063634065	3.9309566777928193	0.428993271119355
258.0670471	19.183708570833538	1.807222796595874	4.4323386578734105	0.417553437864488
258.5535583	18.096178706518337	1.8425375285216503	4.18106812582807	0.425712801364465
259.0235901	18.627541075297327	1.8481145268579793	4.30383781656759	0.427001350199
259.5018616	18.716611166136165	1.7085154007301069	4.32441719544147	0.394747388403383
260.899292	21.2335038195135	1.7942105900968948	4.90593773742066	0.41454700635638303
261.0407257	18.92572570224209	1.3525148146200618	4.37273248541177	0.312494514606073
261.5134277	20.452389018879952	1.6646274644327144	4.72546349208371	0.384607211599354
262.000824	20.95190548443935	1.5113304329210575	4.84087528185148	0.34918838961310905
262.5245667	21.986923036713907	2.1195697651406498	5.08001300079592	0.48972027350206804
263.034729	19.876260577565755	1.7584957344419068	4.59235073378109	0.406295195461974
263.5348816	20.822645535677655	1.9334956134061962	4.81101015615403	0.44672839563245
264.0275574	21.010652725768452	1.512482657292843	4.8544486567714	0.349454607618181
264.52948	19.3276529500484	1.5694693700461977	4.4655965774368696	0.36262121766071703
265.0534363	21.744579662267732	1.5027913392478955	5.024020286818271	0.34721545748421395
265.5061646	21.599511412051147	1.6714076865908727	4.99050270021134	0.386173761709809
266.0059509	19.666633452987547	1.7111370502739132	4.54391701177285	0.395353112712502
266.554718	21.652131124503118	1.9546207642823372	5.002660327857	0.45160929874542194
267.0377808	22.52348634499515	1.7796227852762339	5.2039843530978	0.411176537554619
267.5343018	21.332406364218414	1.8822422224136957	4.9287888754391	0.434886452485516
268.039978	23.365198666325632	1.810346896007494	5.39845947488492	0.418275251717218
268.539032	22.09912475976311	2.1457800545738515	5.10593687431155	0.495776082714342
269.0553894	22.436991373467155	1.6766578659088311	5.18399994786147	0.387386799984751
269.5415344	23.861530116528566	1.8091403875835006	5.51313537635256	0.417996491543763
270.0425415	22.520991223908766	1.7513160872189624	5.20340786281145	0.40463635938141906
271.3038635	24.222664273074294	1.857889866201773	5.5965743462903	0.429259913203507
271.5508728	24.18904794034807	2.2590428764815207	5.588807392860611	0.5219451199569349
272.0443115	24.57579942274599	1.5395249447220218	5.6781651695435	0.355702647486338
272.5348511	23.829314519197744	1.7701408186289853	5.50569205865887	0.408985757436787
273.0446777	23.673568871840207	1.809141962028933	5.469707491283411	0.41799685531468506
273.5002441	25.93904365397229	1.860629203110732	5.99313868386043	0.429892828827391
274.0079651	24.376530981628537	1.7730231938945868	5.63212479045841	0.409651721646421
274.5528564	26.851916161733794	1.7649841403304982	6.20405515451683	0.407794322293566
275.030304	25.26728658196822	1.524593515811555	5.83793121560946	0.35225278536334
275.528717	25.237851976960318	1.590566364100837	5.83113043789883	0.367495615224047
276.0210571	25.879619916493187	1.6320755317666766	5.97940900652242	0.377086184629442
276.5152588	25.58906640609188	1.4529707189828036	5.91227748439898	0.335704551741206
277.0002441	25.390481197284252	1.838325389488395	5.8663949641016195	0.424739599201781
277.5288544	25.63830300862753	1.6880088370225936	5.92365345458719	0.390009408011044
278.0483398	26.372794098338932	1.657752805547803	6.0933554305513695	0.383018842164801
278.5441589	26.679898634421125	1.5366645017469718	6.1643110178018405	0.35504175066703203
279.0426636	28.10150671980833	1.8370261391821294	6.49276932657677	0.424439411292991
279.5304871	27.081603517906732	1.7553779008334947	6.25712373321375	0.40557482930439004
280.0418701	28.197704030774215	2.05858844899888	6.5149954284070395	0.475630722258879
280.5333252	26.96147574982443	1.641874043591627	6.22936857062935	0.37935010156661797
281.7056274	28.305493823141557	1.6108972306781988	6.53989993849537	0.372193001318408
282.0121765	28.19826816205851	2.279331704981189	6.51512576925799	0.526632793278806
282.509491	27.87318930655469	1.6441754853518573	6.44001726910607	0.37988184282222803
283.0614624	27.75956582795602	1.7623533843567716	6.41376490321053	0.40718649397097
283.5836334	28.975248190747397	1.6126593999288095	6.69464468786736	0.372600145268826
284.0562134	26.541083332477353	1.6570211377475508	6.1322381562465305	0.382849792501447
284.5520935	29.01335366983904	2.0081417360755	6.70344884517777	0.46397515967423403
285.0003052	28.946567824055364	1.8488303817573866	6.688018174670409	0.42716674633876905
285.5606079	31.3217653845733	1.868705408767639	7.23680048799101	0.431758812060501
286.0161743	31.57913572166429	1.8289648116188548	7.29626513687609	0.422576865599047
286.51312255	29.60326699667878	1.768763737157556	6.839746560173389	0.408667586869385
287.01835635	27.946192768466297	1.769270668719496	6.456884501278339	0.408784711895059
287.5223389	30.44840739725159	1.8342771897693475	7.03501372944663	0.423804274728764
288.0186157	30.705236321195905	2.1514471384508758	7.09435328643871	0.497085445544412
288.5033569	31.132671147996877	1.427673551286542	7.1931108285248	0.329859716583247
289.0054016	29.749086103947516	1.629938453170873	6.8734376300631	0.376592418992828
289.5446167	30.26974553869936	1.9716092767894011	6.993734439812689	0.455534443899019
290.0274658	31.515389106342372	1.9700884508655725	7.28153667150368	0.455183061604548
290.5083008	30.866296875894353	1.8752341829519483	7.13156584730579	0.433267265866437
291.0235901	28.647765473679517	1.8925444900668171	6.61898078266958	0.437266760704549
292.1610413	31.627170191612233	1.711889340787395	7.307363357914769	0.395526927192249
292.5229187	31.983513369244406	2.0080752151675845	7.38969538646163	0.463959790216831
293.0649109	31.222654787996074	1.6800240633115282	7.2139012802079	0.388164549856363
293.567749	32.2121160252889	1.7704443472337315	7.44251334842854	0.409055886815766
294.0205078	31.392646271893025	1.9947327085912394	7.253177305633519	0.46087704386083306
294.5597534	30.97036533107209	1.5960776578033002	7.1556105535338	0.36876898319886403
295.0419617	28.857686087053953	1.6571838119479663	6.66748231438898	0.382887377890345
295.50582885	29.287158240195836	1.8894036979070812	6.76671057465066	0.436541090042146
296.04092405	31.485929562621468	1.4312864055457866	7.27473013177778	0.330694455786013
296.5029297	32.199670774941126	1.7611318677425696	7.43963791044846	0.406904266199923
297.0527954	32.549915957365116	1.8320643153903264	7.520561015387201	0.423292996702467
297.5419617	30.410183229786607	1.6830624292403205	7.0261821495414996	0.38886655524355
298.0196228	31.935344476644442	1.5927876407191708	7.378566107470061	0.368008834562681
298.5107117	30.735794498767522	1.7335267011491429	7.1014136622396	0.40052617477941904
299.0424805	31.999412364230153	2.2135141389162114	7.39336880184096	0.51142584091296
299.5064697	32.28322679938782	2.2364701427847327	7.45894328072584	0.5167297571500651
300.0518494	31.094071555506286	1.8325976323191668	7.18419250778705	0.42341621798848
300.5197754	31.0030459498601	1.6114137136033109	7.16316131304844	0.37231233315806
301.0330811	30.978684696744722	2.1757388109990385	7.15753271816342	0.5026979640468731
301.5238037	31.56009904718946	2.231474818915349	7.29186677000763	0.515575602466516
302.59797665	31.419316759938333	1.9646012564628155	7.25933944236277	0.453915261701062
303.0406494	29.48838028121646	1.742324723284573	6.813202327167581	0.402558931557375
303.5400085	31.450594754508412	1.7287667391360788	7.2665661297346	0.399426399750904
304.06063845	32.83513482343297	1.6500791756076345	7.58645998384575	0.381245872850529
304.5214539	30.597261527824244	1.8269101255383606	7.06940603242002	0.422102136507394
305.0227966	31.708399879489573	1.7676658566473022	7.32613123506513	0.408413924851462
305.5223389	33.41592303524703	1.9433376894759866	7.72064936822654	0.449002377958484
306.0708923	32.435127608138956	1.9692485054513926	7.49403950960692	0.454988994721389
306.5819397	33.87299059116801	1.9772746076023318	7.82625346400854	0.456843401688858
307.0077515	31.452981040028565	1.5667249094092992	7.26711747388793	0.361987118214772
307.5001221	33.62065298544025	1.9273969517952196	7.76795161269691	0.44531931805395103
308.0620117	35.28423564222138	1.6747647976733484	8.15231742460407	0.38694941221422996
308.5465698	31.40221339811479	1.6670305682042041	7.25538776161709	0.385162441559501
309.0639954	31.395300245455676	2.1059032868270275	7.2537904983108	0.48656267444228296
309.5486755	33.15574280835792	1.6285407771418343	7.66053550268293	0.37626949011430505
310.0426331	30.166774746180106	1.9079712444783137	6.9699433452686	0.440831066307458
310.5212402	29.368659453312603	1.7297598067170235	6.78554118689788	0.399655845054071
311.0684814	29.4501773839404	2.1080971817555563	6.804375661676169	0.487069567323142
311.5024109	32.600016715049094	1.8878742993126427	7.5321366460454495	0.43618772705769504
312.0013733	32.044462789521056	1.6361029467901576	7.4037775682603	0.37801670686053
312.9316101	31.372903984147744	1.5847525322536826	7.24861590892312	0.36615234671309305
313.0636292	33.053455419887385	1.644663522411261	7.63690230660633	0.37999460232943605
313.5652771	32.80231653366982	1.6970373005554853	7.578877415862849	0.392095407586688
314.0157623	30.67218667846356	1.7873529579383332	7.086717265042191	0.412962570896178
314.5325623	31.9911314566635	1.98367984715855	7.39145552284204	0.458323313187364
315.0016174	32.14144296494588	2.100142735718028	7.42618454858924	0.48523171628699197
315.5311584	31.796394994136296	1.7943911538127182	7.34646224389549	0.414588725064468
316.0566711	30.037528579968512	1.6897094711675351	6.94008140398825	0.3904023344588
316.5115662	33.740511571110886	1.665283409182032	7.795644581487819	0.384758765677602
317.0479431	32.28065636067164	2.1162748806408826	7.45834938852573	0.48895900026401706
317.5515747	31.85056172247227	1.6996808905460314	7.358977304947819	0.392706201170598
318.0235596	33.69652323080699	1.8121068955003143	7.785481206637501	0.418681894351569
318.5163574	33.36659058701093	1.8308270663258046	7.7092512531750605	0.423007133995689
319.0197754	30.070953142842228	1.5174584970830831	6.9478040495653905	0.35060426056334704
319.5060425	32.23934280313032	1.6072097658337607	7.44880401425628	0.37134102356242804
320.0401306	32.01563072082042	1.926967204371975	7.39711600476665	0.445220026193353
320.530365	29.94109213963762	1.3751724052253524	6.9178000520313	0.317729483348602
321.0466309	31.58412685601295	1.9874255396700027	7.297418323583369	0.459188744272168
321.5237427	30.051120363502164	2.1326895311381113	6.943221745041869	0.49275155631154605
322.03479	28.956711305610952	2.1901892924775583	6.690361795835121	0.506036704699945
323.3506165	31.65007808294126	1.7847987739531073	7.3126561578931	0.41237243430318105
323.5083008	30.73184968094071	1.8946332169787439	7.10050222384449	0.43774935482879196
324.0342407	30.89953296821817	1.9861884523062174	7.139244947324411	0.458902918925863
324.5168152	32.011482379798224	1.803845737736675	7.39615754294417	0.416773178485741
325.012146	31.32904618775946	2.2069326484459157	7.23848269585521	0.5099052071663511
325.5204468	33.632426035748914	1.8248918328860524	7.770671740862509	0.421635816008795
326.0124512	30.68260427359399	1.6798073902718267	7.08912421933094	0.388114488196677
326.54309085	32.458305883874466	2.4197560020567552	7.4993947810960595	0.559077408361159
327.0033264	31.243882176175994	2.0149818519940874	7.21880580494503	0.46555554805942795
327.5078125	31.49703183596254	1.8640891796192165	7.2772952789253305	0.430692246081738
328.0098267	32.98354236856834	1.6349078589956696	7.6207491045856095	0.377740585389465
328.53767395	32.965208879551064	1.8609985257533115	7.61651320662016	0.42997815972260806
329.0466919	30.92850652727853	1.9245540426914893	7.145939201743739	0.444662472383326
329.5169373	30.84656565737681	1.8800773121135315	7.12700700810745	0.434386256416606
330.0100098	31.66750111686564	2.020268746693173	7.316681697924389	0.466777069313691
330.5125122	31.80984181907463	1.7161865800828449	7.34956909269794	0.396519791516737
331.0368652	29.81584693585331	1.6188480634490316	6.888862521188569	0.374030017520063
331.5026703	31.171789302762896	1.7924587765502509	7.202148961529891	0.41414225506048497
332.024353	31.748168032459734	1.6498471480262167	7.3353195482169395	0.381192263569768
332.5018311	30.257720939885225	1.6006311693061341	6.990956192115039	0.369821058452643
333.760437	31.526857471207684	1.6166711429722636	7.28418640300619	0.373527046535664
334.0119934	30.376117251368317	1.7166195589836377	7.01831130681554	0.39661983000058604
334.5004883	30.97647947404038	1.9689018968498098	7.15702320803374	0.454908911837609
335.053772	28.051085255323805	1.9025975149980532	6.48111959756863	0.43958948213595295
335.5024414	30.03306820986496	1.8283353936664644	6.93905084877702	0.422431440458124
336.0464172	30.64123805813599	2.4122120488033194	7.07956667860687	0.55733440045865
336.5446777	32.035807003609584	1.9678205727049591	7.40177767473773	0.45465907511854
337.0421753	30.334240855566186	2.062610537088925	7.00863589044436	0.476560013717882
337.5491943	32.579378370594036	1.9175701034416175	7.52736821810437	0.443048854046332
338.046814	28.81318888274224	2.1273001967909253	6.65720136802713	0.49150636668207287
338.5481567	30.451056732371296	2.097161943769445	7.0356258504255	0.484543013196242
339.0278931	32.3184823556007	1.8769416445258056	7.46708897185382	0.433661769771284
339.537323	29.716929298815362	2.1584026446417224	6.866007896131589	0.49869249450790804
340.0422974	30.223430545866606	2.194864140883663	6.98303349883385	0.507116814483388
340.5154724	28.123961508505587	2.2013443517895754	6.49795743854322	0.50861404788867
341.0089111	30.76641804656524	1.6460834959636106	7.108489141636291	0.38032268298422695
341.5012207	32.840418513187416	1.873776882805649	7.587680764607111	0.432930561013425
342.0278931	30.310578472028425	1.699426198329453	7.00316876729116	0.39264735529347095
342.5129395	28.77466557576742	2.015323773420395	6.64830067283031	0.46563454798533804
343.0509338	31.12335925984848	2.0456682328627225	7.19095934453694	0.472645544849781
344.2512512	28.845888772738547	1.8030337600384096	6.66475658009698	0.416585573459942
344.52770995	30.491409256316107	1.6664898022975823	7.04494918074836	0.385037499209385
345.0317383	29.44676876668708	2.239539335843219	6.80358811082457	0.517438885053639
345.5131226	28.40003934512301	1.9428559727179278	6.561744399406559	0.448891078738054
346.0153198	27.160167925397754	2.216144870914935	6.27527580527894	0.512033663696203
346.5258179	27.893125943260955	1.8202462683289058	6.444623569564341	0.420562472171327
347.0142212	30.783343790633882	2.061452710496727	7.112399784329371	0.47629250133649
347.509491	27.44793215179989	2.1599509404371564	6.341762871652249	0.49905022363429596
348.053894	28.374138899524972	1.6528872241658075	6.55576017868842	0.38189466409606004
348.5299072	30.60005795661816	1.8399310815903152	7.07005213895367	0.42511058957362197
349.0032349	28.408380135630964	2.34725639740033	6.5636715141804896	0.542326590905155
349.5014648	27.926907451735666	1.7982091706390388	6.452428686358149	0.415470866466545
349.7511597	28.3618275304105	1.5809553113830694	6.55291567356805	0.365275010154567
