#  5.01100015640259E+0000  9154
#  5.03700015693903E+0000  8952
#  5.06300015747547E+0000  8756
#  5.08900015801191E+0000  8898
#  5.11500015854836E+0000  8787
#  5.14100015908480E+0000  8640
#  5.16700015962124E+0000  8671
#  5.19300016015768E+0000  8581
#  5.21900016069412E+0000  8525
#  5.24500016123056E+0000  8420
#  5.27100016176701E+0000  8552
#  5.29700016230345E+0000  8296
#  5.32300016283989E+0000  8464
#  5.34900016337633E+0000  8524
#  5.37500016391277E+0000  8517
#  5.40100016444921E+0000  8498
#  5.42700016498566E+0000  8607
#  5.45300016552210E+0000  8575
#  5.47900016605854E+0000  8419
#  5.50500016659498E+0000  8495
#  5.53100016713142E+0000  8473
#  5.55700016766787E+0000  8481
#  5.58300016820431E+0000  8407
#  5.60900016874075E+0000  8351
#  5.63500016927719E+0000  8346
#  5.66100016981363E+0000  8361
#  5.68700017035007E+0000  8503
#  5.71300017088652E+0000  8472
#  5.73900017142296E+0000  8423
#  5.76500017195940E+0000  8320
#  5.79100017249584E+0000  8268
#  5.81700017303228E+0000  8423
#  5.84300017356873E+0000  8379
#  5.86900017410517E+0000  8311
#  5.89500017464161E+0000  8224
#  5.92100017517805E+0000  8073
#  5.94700017571449E+0000  8155
#  5.97300017625093E+0000  8218
#  5.99900017678738E+0000  8122
#  6.02500017732382E+0000  8109
#  6.05100017786026E+0000  8158
#  6.07700017839670E+0000  8099
#  6.10300017893314E+0000  8030
#  6.12900017946959E+0000  8020
#  6.15500018000603E+0000  7954
#  6.18100018054247E+0000  7914
#  6.20700018107891E+0000  7882
#  6.23300018161535E+0000  7799
#  6.25900018215179E+0000  7844
#  6.28500018268824E+0000  7955
#  6.31100018322468E+0000  7933
#  6.33700018376112E+0000  7809
#  6.36300018429756E+0000  7786
#  6.38900018483400E+0000  7834
#  6.41500018537045E+0000  7889
#  6.44100018590689E+0000  7853
#  6.46700018644333E+0000  7729
#  6.49300018697977E+0000  7727
#  6.51900018751621E+0000  7709
#  6.54500018805265E+0000  7643
#  6.57100018858910E+0000  7539
#  6.59700018912554E+0000  7520
#  6.62300018966198E+0000  7579
#  6.64900019019842E+0000  7551
#  6.67500019073486E+0000  7475
#  6.70100019127131E+0000  7520
#  6.72700019180775E+0000  7490
#  6.75300019234419E+0000  7467
#  6.77900019288063E+0000  7309
#  6.80500019341707E+0000  7426
#  6.83100019395351E+0000  7373
#  6.85700019448996E+0000  7428
#  6.88300019502640E+0000  7432
#  6.90900019556284E+0000  7360
#  6.93500019609928E+0000  7243
#  6.96100019663572E+0000  7181
#  6.98700019717216E+0000  7253
#  7.01300019770861E+0000  7199
#  7.03900019824505E+0000  7246
#  7.06500019878149E+0000  7143
#  7.09100019931793E+0000  7202
#  7.11700019985437E+0000  7064
#  7.14300020039082E+0000  7134
#  7.16900020092726E+0000  7120
#  7.19500020146370E+0000  7112
#  7.22100020200014E+0000  7175
#  7.24700020253658E+0000  7052
#  7.27300020307302E+0000  6954
#  7.29900020360947E+0000  6824
#  7.32500020414591E+0000  6918
#  7.35100020468235E+0000  6971
#  7.37700020521879E+0000  6802
#  7.40300020575523E+0000  6745
#  7.42900020629168E+0000  6801
#  7.45500020682812E+0000  6733
#  7.48100020736456E+0000  6776
#  7.50700020790100E+0000  6785
#  7.53300020843744E+0000  6852
#  7.55900020897388E+0000  6556
#  7.58500020951033E+0000  6693
#  7.61100021004677E+0000  6802
#  7.63700021058321E+0000  6667
#  7.66300021111965E+0000  6781
#  7.68900021165609E+0000  6608
#  7.71500021219254E+0000  6472
#  7.74100021272898E+0000  6502
#  7.76700021326542E+0000  6518
#  7.79300021380186E+0000  6527
#  7.81900021433830E+0000  6434
#  7.84500021487474E+0000  6582
#  7.87100021541119E+0000  6451
#  7.89700021594763E+0000  6447
#  7.92300021648407E+0000  6408
#  7.94900021702051E+0000  6398
#  7.97500021755695E+0000  6452
#  8.00100021809340E+0000  6369
#  8.02700021862984E+0000  6426
#  8.05300021916628E+0000  6354
#  8.07900021970272E+0000  6417
#  8.10500022023916E+0000  6404
#  8.13100022077560E+0000  6300
#  8.15700022131205E+0000  6248
#  8.18300022184849E+0000  6160
#  8.20900022238493E+0000  6171
#  8.23500022292137E+0000  6244
#  8.26100022345781E+0000  6242
#  8.28700022399426E+0000  6133
#  8.31300022453070E+0000  6136
#  8.33900022506714E+0000  6174
#  8.36500022560358E+0000  6315
#  8.39100022614002E+0000  6251
#  8.41700022667646E+0000  6094
#  8.44300022721291E+0000  6023
#  8.46900022774935E+0000  5954
#  8.49500022828579E+0000  5966
#  8.52100022882223E+0000  5973
#  8.54700022935867E+0000  5959
#  8.57300022989511E+0000  6031
#  8.59900023043156E+0000  5992
#  8.62500023096800E+0000  5906
#  8.65100023150444E+0000  5894
#  8.67700023204088E+0000  5962
#  8.70300023257732E+0000  5951
#  8.72900023311377E+0000  5899
#  8.75500023365021E+0000  5856
#  8.78100023418665E+0000  5892
#  8.80700023472309E+0000  5888
#  8.83300023525953E+0000  5943
#  8.85900023579597E+0000  5934
#  8.88500023633242E+0000  5896
#  8.91100023686886E+0000  5888
#  8.93700023740530E+0000  5801
#  8.96300023794174E+0000  5780
#  8.98900023847818E+0000  5787
#  9.01500023901463E+0000  5766
#  9.04100023955107E+0000  5704
#  9.06700024008751E+0000  5684
#  9.09300024062395E+0000  5767
#  9.11900024116039E+0000  5769
#  9.14500024169683E+0000  5684
#  9.17100024223328E+0000  5767
#  9.19700024276972E+0000  5879
#  9.22300024330616E+0000  5778
#  9.24900024384260E+0000  5758
#  9.27500024437904E+0000  5690
#  9.30100024491549E+0000  5796
#  9.32700024545193E+0000  5911
#  9.35300024598837E+0000  5832
#  9.37900024652481E+0000  5800
#  9.40500024706125E+0000  5884
#  9.43100024759769E+0000  6159
#  9.45700024813414E+0000  6170
#  9.48300024867058E+0000  6138
#  9.50900024920702E+0000  5982
#  9.53500024974346E+0000  5807
#  9.56100025027990E+0000  5878
#  9.58700025081635E+0000  5827
#  9.61300025135279E+0000  5718
#  9.63900025188923E+0000  5675
#  9.66500025242567E+0000  5731
#  9.69100025296211E+0000  5768
#  9.71700025349855E+0000  5616
#  9.74300025403500E+0000  5683
#  9.76900025457144E+0000  5599
#  9.79500025510788E+0000  5726
#  9.82100025564432E+0000  5511
#  9.84700025618076E+0000  5603
#  9.87300025671721E+0000  5712
#  9.89900025725365E+0000  5740
#  9.92500025779009E+0000  5662
#  9.95100025832653E+0000  5540
#  9.97700025886297E+0000  5568
#  1.00030002593994E+0001  5708
#  1.00290002599358E+0001  5523
#  1.00550002604723E+0001  5562
#  1.00810002610087E+0001  5662
#  1.01070002615451E+0001  5574
#  1.01330002620816E+0001  5615
#  1.01590002626180E+0001  5591
#  1.01850002631545E+0001  5393
#  1.02110002636909E+0001  5642
#  1.02370002642273E+0001  5560
#  1.02630002647638E+0001  5587
#  1.02890002653002E+0001  5570
#  1.03150002658367E+0001  5580
#  1.03410002663731E+0001  5479
#  1.03670002669096E+0001  5624
#  1.03930002674460E+0001  5597
#  1.04190002679824E+0001  5594
#  1.04450002685189E+0001  5538
#  1.04710002690553E+0001  5476
#  1.04970002695918E+0001  5534
#  1.05230002701282E+0001  5555
#  1.05490002706646E+0001  5614
#  1.05750002712011E+0001  5625
#  1.06010002717375E+0001  5394
#  1.06270002722740E+0001  5563
#  1.06530002728104E+0001  5464
#  1.06790002733469E+0001  5535
#  1.07050002738833E+0001  5508
#  1.07310002744197E+0001  5476
#  1.07570002749562E+0001  5612
#  1.07830002754926E+0001  5448
#  1.08090002760291E+0001  5499
#  1.08350002765655E+0001  5533
#  1.08610002771019E+0001  5462
#  1.08870002776384E+0001  5472
#  1.09130002781748E+0001  5604
#  1.09390002787113E+0001  5589
#  1.09650002792477E+0001  5582
#  1.09910002797842E+0001  5413
#  1.10170002803206E+0001  5451
#  1.10430002808570E+0001  5438
#  1.10690002813935E+0001  5563
#  1.10950002819299E+0001  5466
#  1.11210002824664E+0001  5500
#  1.11470002830028E+0001  5529
#  1.11730002835393E+0001  5511
#  1.11990002840757E+0001  5550
#  1.12250002846121E+0001  5628
#  1.12510002851486E+0001  5595
#  1.12770002856850E+0001  5530
#  1.13030002862215E+0001  5504
#  1.13290002867579E+0001  5506
#  1.13550002872943E+0001  5573
#  1.13810002878308E+0001  5545
#  1.14070002883672E+0001  5519
#  1.14330002889037E+0001  5510
#  1.14590002894401E+0001  5480
#  1.14850002899766E+0001  5473
#  1.15110002905130E+0001  5455
#  1.15370002910494E+0001  5496
#  1.15630002915859E+0001  5515
#  1.15890002921223E+0001  5483
#  1.16150002926588E+0001  5448
#  1.16410002931952E+0001  5512
#  1.16670002937316E+0001  5535
#  1.16930002942681E+0001  5454
#  1.17190002948045E+0001  5417
#  1.17450002953410E+0001  5401
#  1.17710002958774E+0001  5445
#  1.17970002964139E+0001  5380
#  1.18230002969503E+0001  5424
#  1.18490002974867E+0001  5431
#  1.18750002980232E+0001  5340
#  1.19010002985596E+0001  5348
#  1.19270002990961E+0001  5457
#  1.19530002996325E+0001  5496
#  1.19790003001689E+0001  5453
#  1.20050003007054E+0001  5455
#  1.20310003012418E+0001  5415
#  1.20570003017783E+0001  5505
#  1.20830003023147E+0001  5544
#  1.21090003028512E+0001  5358
#  1.21350003033876E+0001  5403
#  1.21610003039240E+0001  5450
#  1.21870003044605E+0001  5421
#  1.22130003049969E+0001  5424
#  1.22390003055334E+0001  5383
#  1.22650003060698E+0001  5327
#  1.22910003066062E+0001  5246
#  1.23170003071427E+0001  5386
#  1.23430003076791E+0001  5245
#  1.23690003082156E+0001  5327
#  1.23950003087520E+0001  5284
#  1.24210003092885E+0001  5416
#  1.24470003098249E+0001  5279
#  1.24730003103613E+0001  5260
#  1.24990003108978E+0001  5354
#  1.25250003114342E+0001  5434
#  1.25510003119707E+0001  5382
#  1.25770003125071E+0001  5398
#  1.26030003130435E+0001  5371
#  1.26290003135800E+0001  5281
#  1.26550003141164E+0001  5227
#  1.26810003146529E+0001  5354
#  1.27070003151893E+0001  5139
#  1.27330003157258E+0001  5282
#  1.27590003162622E+0001  5263
#  1.27850003167986E+0001  5307
#  1.28110003173351E+0001  5150
#  1.28370003178715E+0001  5132
#  1.28630003184080E+0001  5141
#  1.28890003189444E+0001  5138
#  1.29150003194809E+0001  5203
#  1.29410003200173E+0001  5225
#  1.29670003205537E+0001  5134
#  1.29930003210902E+0001  5196
#  1.30190003216266E+0001  5245
#  1.30450003221631E+0001  5063
#  1.30710003226995E+0001  5139
#  1.30970003232359E+0001  5131
#  1.31230003237724E+0001  5239
#  1.31490003243088E+0001  5178
#  1.31750003248453E+0001  5348
#  1.32010003253817E+0001  5167
#  1.32270003259182E+0001  5139
#  1.32530003264546E+0001  5130
#  1.32790003269910E+0001  5184
#  1.33050003275275E+0001  5151
#  1.33310003280639E+0001  5259
#  1.33570003286004E+0001  5053
#  1.33830003291368E+0001  5025
#  1.34090003296732E+0001  5073
#  1.34350003302097E+0001  5093
#  1.34610003307461E+0001  5147
#  1.34870003312826E+0001  5213
#  1.35130003318190E+0001  5123
#  1.35390003323555E+0001  5104
#  1.35650003328919E+0001  5157
#  1.35910003334283E+0001  5184
#  1.36170003339648E+0001  5105
#  1.36430003345012E+0001  5118
#  1.36690003350377E+0001  5125
#  1.36950003355741E+0001  5112
#  1.37210003361105E+0001  5052
#  1.37470003366470E+0001  5127
#  1.37730003371834E+0001  5040
#  1.37990003377199E+0001  5144
#  1.38250003382563E+0001  5237
#  1.38510003387928E+0001  5163
#  1.38770003393292E+0001  5167
#  1.39030003398656E+0001  5226
#  1.39290003404021E+0001  5190
#  1.39550003409385E+0001  5111
#  1.39810003414750E+0001  5119
#  1.40070003420114E+0001  5083
#  1.40330003425478E+0001  5029
#  1.40590003430843E+0001  5046
#  1.40850003436207E+0001  5064
#  1.41110003441572E+0001  5122
#  1.41370003446936E+0001  5080
#  1.41630003452301E+0001  5007
#  1.41890003457665E+0001  5017
#  1.42150003463029E+0001  5065
#  1.42410003468394E+0001  5128
#  1.42670003473758E+0001  5071
#  1.42930003479123E+0001  4992
#  1.43190003484487E+0001  5005
#  1.43450003489852E+0001  5059
#  1.43710003495216E+0001  5111
#  1.43970003500580E+0001  5136
#  1.44230003505945E+0001  5105
#  1.44490003511309E+0001  5093
#  1.44750003516674E+0001  5099
#  1.45010003522038E+0001  5110
#  1.45270003527402E+0001  5205
#  1.45530003532767E+0001  5054
#  1.45790003538131E+0001  5073
#  1.46050003543496E+0001  5097
#  1.46310003548860E+0001  5149
#  1.46570003554225E+0001  5127
#  1.46830003559589E+0001  5103
#  1.47090003564953E+0001  5140
#  1.47350003570318E+0001  5163
#  1.47610003575682E+0001  5184
#  1.47870003581047E+0001  5037
#  1.48130003586411E+0001  5184
#  1.48390003591775E+0001  5148
#  1.48650003597140E+0001  5118
#  1.48910003602504E+0001  5048
#  1.49170003607869E+0001  5136
#  1.49430003613233E+0001  5100
#  1.49690003618598E+0001  5188
#  1.49950003623962E+0001  5248
 1.50210003629326E+0001  5151
 1.50470003634691E+0001  5178
 1.50730003640055E+0001  5157
 1.50990003645420E+0001  5162
 1.51250003650784E+0001  5045
 1.51510003656148E+0001  5167
 1.51770003661513E+0001  5203
 1.52030003666877E+0001  5125
 1.52290003672242E+0001  5160
 1.52550003677606E+0001  5166
 1.52810003682971E+0001  5236
 1.53070003688335E+0001  5251
 1.53330003693699E+0001  5161
 1.53590003699064E+0001  5151
 1.53850003704428E+0001  5083
 1.54110003709793E+0001  5179
 1.54370003715157E+0001  5238
 1.54630003720521E+0001  5142
 1.54890003725886E+0001  5221
 1.55150003731250E+0001  5338
 1.55410003736615E+0001  5163
 1.55670003741979E+0001  5325
 1.55930003747344E+0001  5061
 1.56190003752708E+0001  5218
 1.56450003758072E+0001  5190
 1.56710003763437E+0001  5169
 1.56970003768801E+0001  5148
 1.57230003774166E+0001  5155
 1.57490003779530E+0001  5133
 1.57750003784894E+0001  5199
 1.58010003790259E+0001  5197
 1.58270003795623E+0001  5103
 1.58530003800988E+0001  5168
 1.58790003806352E+0001  5190
 1.59050003811717E+0001  5321
 1.59310003817081E+0001  5172
 1.59570003822445E+0001  5091
 1.59830003827810E+0001  5284
 1.60090003833175E+0001  5166
 1.60350003838539E+0001  5230
 1.60610003843904E+0001  5325
 1.60870003849268E+0001  5221
 1.61130003854632E+0001  5216
 1.61390003859997E+0001  5249
 1.61650003865361E+0001  5274
 1.61910003870726E+0001  5142
 1.62170003876090E+0001  5173
 1.62430003881454E+0001  5281
 1.62690003886819E+0001  5189
 1.62950003892183E+0001  5160
 1.63210003897548E+0001  5274
 1.63470003902912E+0001  5224
 1.63730003908277E+0001  5254
 1.63990003913641E+0001  5314
 1.64250003919005E+0001  5190
 1.64510003924370E+0001  5313
 1.64770003929734E+0001  5341
 1.65030003935099E+0001  5305
 1.65290003940463E+0001  5394
 1.65550003945827E+0001  5384
 1.65810003951192E+0001  5241
 1.66070003956556E+0001  5205
 1.66330003961921E+0001  5148
 1.66590003967285E+0001  5208
 1.66850003972650E+0001  5366
 1.67110003978014E+0001  5354
 1.67370003983378E+0001  5334
 1.67630003988743E+0001  5393
 1.67890003994107E+0001  5344
 1.68150003999472E+0001  5322
 1.68410004004836E+0001  5415
 1.68670004010201E+0001  5426
 1.68930004015565E+0001  5433
 1.69190004020929E+0001  5411
 1.69450004026294E+0001  5290
 1.69710004031658E+0001  5356
 1.69970004037023E+0001  5527
 1.70230004042387E+0001  5487
 1.70490004047751E+0001  5428
 1.70750004053116E+0001  5432
 1.71010004058480E+0001  5367
 1.71270004063845E+0001  5485
 1.71530004069209E+0001  5541
 1.71790004074574E+0001  5520
 1.72050004079938E+0001  5622
 1.72310004085302E+0001  5520
 1.72570004090667E+0001  5556
 1.72830004096031E+0001  5526
 1.73090004101396E+0001  5539
 1.73350004106760E+0001  5569
 1.73610004112124E+0001  5587
 1.73870004117489E+0001  5583
 1.74130004122853E+0001  5547
 1.74390004128218E+0001  5569
 1.74650004133582E+0001  5554
 1.74910004138947E+0001  5556
 1.75170004144311E+0001  5621
 1.75430004149675E+0001  5667
 1.75690004155040E+0001  5550
 1.75950004160404E+0001  5689
 1.76210004165769E+0001  5794
 1.76470004171133E+0001  5628
 1.76730004176497E+0001  5633
 1.76990004181862E+0001  5639
 1.77250004187226E+0001  5714
 1.77510004192591E+0001  5632
 1.77770004197955E+0001  5606
 1.78030004203320E+0001  5767
 1.78290004208684E+0001  5796
 1.78550004214048E+0001  5813
 1.78810004219413E+0001  5772
 1.79070004224777E+0001  5676
 1.79330004230142E+0001  5737
 1.79590004235506E+0001  5729
 1.79850004240870E+0001  5749
 1.80110004246235E+0001  5644
 1.80370004251599E+0001  5800
 1.80630004256964E+0001  5694
 1.80890004262328E+0001  5740
 1.81150004267693E+0001  5792
 1.81410004273057E+0001  5786
 1.81670004278421E+0001  5734
 1.81930004283786E+0001  5741
 1.82190004289150E+0001  5916
 1.82450004294515E+0001  5814
 1.82710004299879E+0001  5707
 1.82970004305243E+0001  5751
 1.83230004310608E+0001  5750
 1.83490004315972E+0001  5808
 1.83750004321337E+0001  5972
 1.84010004326701E+0001  5849
 1.84270004332066E+0001  5953
 1.84530004337430E+0001  5919
 1.84790004342794E+0001  5797
 1.85050004348159E+0001  5915
 1.85310004353523E+0001  5993
 1.85570004358888E+0001  5938
 1.85830004364252E+0001  5869
 1.86090004369617E+0001  5955
 1.86350004374981E+0001  5962
 1.86610004380345E+0001  5943
 1.86870004385710E+0001  5824
 1.87130004391074E+0001  5946
 1.87390004396439E+0001  5878
 1.87650004401803E+0001  5829
 1.87910004407167E+0001  5858
 1.88170004412532E+0001  5929
 1.88430004417896E+0001  5932
 1.88690004423261E+0001  5949
 1.88950004428625E+0001  6018
 1.89210004433990E+0001  6197
 1.89470004439354E+0001  6108
 1.89730004444718E+0001  6088
 1.89990004450083E+0001  6074
 1.90250004455447E+0001  6038
 1.90510004460812E+0001  6025
 1.90770004466176E+0001  6076
 1.91030004471540E+0001  6029
 1.91290004476905E+0001  6021
 1.91550004482269E+0001  5972
 1.91810004487634E+0001  5988
 1.92070004492998E+0001  5882
 1.92330004498363E+0001  5923
 1.92590004503727E+0001  5979
 1.92850004509091E+0001  6037
 1.93110004514456E+0001  6020
 1.93370004519820E+0001  5936
 1.93630004525185E+0001  6015
 1.93890004530549E+0001  6004
 1.94150004535913E+0001  6006
 1.94410004541278E+0001  6058
 1.94670004546642E+0001  6132
 1.94930004552007E+0001  6151
 1.95190004557371E+0001  6076
 1.95450004562736E+0001  6183
 1.95710004568100E+0001  6228
 1.95970004573464E+0001  6175
 1.96230004578829E+0001  6162
 1.96490004584193E+0001  6116
 1.96750004589558E+0001  6062
 1.97010004594922E+0001  5978
 1.97270004600286E+0001  6050
 1.97530004605651E+0001  6123
 1.97790004611015E+0001  6093
 1.98050004616380E+0001  6127
 1.98310004621744E+0001  6095
 1.98570004627109E+0001  6008
 1.98830004632473E+0001  6024
 1.99090004637837E+0001  6023
 1.99350004643202E+0001  6059
 1.99610004648566E+0001  6011
 1.99870004653931E+0001  6018
 2.00130004659295E+0001  6072
 2.00390004664660E+0001  5982
 2.00650004670024E+0001  6007
 2.00910004675388E+0001  6087
 2.01170004680753E+0001  6121
 2.01430004686117E+0001  6008
 2.01690004691482E+0001  6029
 2.01950004696846E+0001  6033
 2.02210004702210E+0001  6087
 2.02470004707575E+0001  6016
 2.02730004712939E+0001  6115
 2.02990004718304E+0001  6048
 2.03250004723668E+0001  6012
 2.03510004729033E+0001  6149
 2.03770004734397E+0001  6108
 2.04030004739761E+0001  6179
 2.04290004745126E+0001  6028
 2.04550004750490E+0001  5981
 2.04810004755855E+0001  6130
 2.05070004761219E+0001  6107
 2.05330004766583E+0001  6092
 2.05590004771948E+0001  5996
 2.05850004777312E+0001  6097
 2.06110004782677E+0001  5978
 2.06370004788041E+0001  6041
 2.06630004793406E+0001  6090
 2.06890004798770E+0001  6058
 2.07150004804134E+0001  6083
 2.07410004809499E+0001  6240
 2.07670004814863E+0001  6146
 2.07930004820228E+0001  6108
 2.08190004825592E+0001  6338
 2.08450004830956E+0001  6230
 2.08710004836321E+0001  6139
 2.08970004841685E+0001  6168
 2.09230004847050E+0001  6191
 2.09490004852414E+0001  6280
 2.09750004857779E+0001  6325
 2.10010004863143E+0001  6108
 2.10270004868507E+0001  6336
 2.10530004873872E+0001  6162
 2.10790004879236E+0001  6144
 2.11050004884601E+0001  6230
 2.11310004889965E+0001  6304
 2.11570004895329E+0001  6098
 2.11830004900694E+0001  6159
 2.12090004906058E+0001  6189
 2.12350004911423E+0001  6262
 2.12610004916787E+0001  6321
 2.12870004922152E+0001  6292
 2.13130004927516E+0001  6280
 2.13390004932880E+0001  6291
 2.13650004938245E+0001  6342
 2.13910004943609E+0001  6323
 2.14170004948974E+0001  6179
 2.14430004954338E+0001  6202
 2.14690004959702E+0001  6310
 2.14950004965067E+0001  6274
 2.15210004970431E+0001  6266
 2.15470004975796E+0001  6342
 2.15730004981160E+0001  6310
 2.15990004986525E+0001  6341
 2.16250004991889E+0001  6298
 2.16510004997253E+0001  6270
 2.16770005002618E+0001  6404
 2.17030005007982E+0001  6420
 2.17290005013347E+0001  6368
 2.17550005018711E+0001  6333
 2.17810005024076E+0001  6389
 2.18070005029440E+0001  6396
 2.18330005034804E+0001  6401
 2.18590005040169E+0001  6336
 2.18850005045533E+0001  6274
 2.19110005050898E+0001  6295
 2.19370005056262E+0001  6305
 2.19630005061626E+0001  6294
 2.19890005066991E+0001  6268
 2.20150005072355E+0001  6279
 2.20410005077720E+0001  6362
 2.20670005083084E+0001  6443
 2.20930005088449E+0001  6359
 2.21190005093813E+0001  6303
 2.21450005099177E+0001  6437
 2.21710005104542E+0001  6470
 2.21970005109906E+0001  6375
 2.22230005115271E+0001  6342
 2.22490005120635E+0001  6428
 2.22750005125999E+0001  6483
 2.23010005131364E+0001  6411
 2.23270005136728E+0001  6351
 2.23530005142093E+0001  6320
 2.23790005147457E+0001  6363
 2.24050005152822E+0001  6455
 2.24310005158186E+0001  6506
 2.24570005163550E+0001  6424
 2.24830005168915E+0001  6434
 2.25090005174279E+0001  6411
 2.25350005179644E+0001  6349
 2.25610005185008E+0001  6396
 2.25870005190372E+0001  6439
 2.26130005195737E+0001  6408
 2.26390005201101E+0001  6360
 2.26650005206466E+0001  6330
 2.26910005211830E+0001  6504
 2.27170005217195E+0001  6495
 2.27430005222559E+0001  6423
 2.27690005227923E+0001  6447
 2.27950005233288E+0001  6358
 2.28210005238652E+0001  6436
 2.28470005244017E+0001  6384
 2.28730005249381E+0001  6380
 2.28990005254745E+0001  6441
 2.29250005260110E+0001  6371
 2.29510005265474E+0001  6255
 2.29770005270839E+0001  6428
 2.30030005276203E+0001  6505
 2.30290005281568E+0001  6411
 2.30550005286932E+0001  6407
 2.30810005292296E+0001  6493
 2.31070005297661E+0001  6358
 2.31330005303025E+0001  6324
 2.31590005308390E+0001  6566
 2.31850005313754E+0001  6415
 2.32110005319119E+0001  6313
 2.32370005324483E+0001  6322
 2.32630005329847E+0001  6263
 2.32890005335212E+0001  6419
 2.33150005340576E+0001  6455
 2.33410005345941E+0001  6374
 2.33670005351305E+0001  6422
 2.33930005356669E+0001  6529
 2.34190005362034E+0001  6476
 2.34450005367398E+0001  6352
 2.34710005372763E+0001  6348
 2.34970005378127E+0001  6470
 2.35230005383492E+0001  6555
 2.35490005388856E+0001  6432
 2.35750005394220E+0001  6339
 2.36010005399585E+0001  6513
 2.36270005404949E+0001  6590
 2.36530005410314E+0001  6408
 2.36790005415678E+0001  6433
 2.37050005421042E+0001  6451
 2.37310005426407E+0001  6539
 2.37570005431771E+0001  6377
 2.37830005437136E+0001  6533
 2.38090005442500E+0001  6485
 2.38350005447865E+0001  6387
 2.38610005453229E+0001  6357
 2.38870005458593E+0001  6415
 2.39130005463958E+0001  6450
 2.39390005469322E+0001  6345
 2.39650005474687E+0001  6469
 2.39910005480051E+0001  6380
 2.40170005485415E+0001  6367
 2.40430005490780E+0001  6480
 2.40690005496144E+0001  6449
 2.40950005501509E+0001  6506
 2.41210005506873E+0001  6367
 2.41470005512238E+0001  6406
 2.41730005517602E+0001  6409
 2.41990005522966E+0001  6363
 2.42250005528331E+0001  6271
 2.42510005533695E+0001  6337
 2.42770005539060E+0001  6399
 2.43030005544424E+0001  6436
 2.43290005549788E+0001  6414
 2.43550005555153E+0001  6356
 2.43810005560517E+0001  6390
 2.44070005565882E+0001  6309
 2.44330005571246E+0001  6304
 2.44590005576611E+0001  6389
 2.44850005581975E+0001  6426
 2.45110005587339E+0001  6417
 2.45370005592704E+0001  6338
 2.45630005598068E+0001  6343
 2.45890005603433E+0001  6383
 2.46150005608797E+0001  6378
 2.46410005614161E+0001  6361
 2.46670005619526E+0001  6317
 2.46930005624890E+0001  6245
 2.47190005630255E+0001  6282
 2.47450005635619E+0001  6300
 2.47710005640984E+0001  6243
 2.47970005646348E+0001  6302
 2.48230005651712E+0001  6433
 2.48490005657077E+0001  6434
 2.48750005662441E+0001  6311
 2.49010005667806E+0001  6315
 2.49270005673170E+0001  6292
 2.49530005678535E+0001  6368
 2.49790005683899E+0001  6327
 2.50050005689263E+0001  6296
 2.50310005694628E+0001  6294
 2.50570005699992E+0001  6315
 2.50830005705357E+0001  6288
 2.51090005710721E+0001  6277
 2.51350005716085E+0001  6265
 2.51610005721450E+0001  6300
 2.51870005726814E+0001  6373
 2.52130005732179E+0001  6352
 2.52390005737543E+0001  6350
 2.52650005742908E+0001  6418
 2.52910005748272E+0001  6295
 2.53170005753636E+0001  6309
 2.53430005759001E+0001  6315
 2.53690005764365E+0001  6427
 2.53950005769730E+0001  6436
 2.54210005775094E+0001  6342
 2.54470005780458E+0001  6325
 2.54730005785823E+0001  6338
 2.54990005791187E+0001  6478
 2.55250005796552E+0001  6414
 2.55510005801916E+0001  6379
 2.55770005807281E+0001  6299
 2.56030005812645E+0001  6318
 2.56290005818009E+0001  6295
 2.56550005823374E+0001  6338
 2.56810005828738E+0001  6356
 2.57070005834103E+0001  6285
 2.57330005839467E+0001  6343
 2.57590005844831E+0001  6158
 2.57850005850196E+0001  6188
 2.58110005855560E+0001  6106
 2.58370005860925E+0001  6160
 2.58630005866289E+0001  6374
 2.58890005871654E+0001  6285
 2.59150005877018E+0001  6440
 2.59410005882382E+0001  6437
 2.59670005887747E+0001  6340
 2.59930005893111E+0001  6442
 2.60190005898476E+0001  6353
 2.60450005903840E+0001  6354
 2.60710005909204E+0001  6459
 2.60970005914569E+0001  6213
 2.61230005919933E+0001  6381
 2.61490005925298E+0001  6320
 2.61750005930662E+0001  6315
 2.62010005936027E+0001  6324
 2.62270005941391E+0001  6382
 2.62530005946755E+0001  6390
 2.62790005952120E+0001  6340
 2.63050005957484E+0001  6305
 2.63310005962849E+0001  6380
 2.63570005968213E+0001  6290
 2.63830005973577E+0001  6310
 2.64090005978942E+0001  6371
 2.64350005984306E+0001  6289
 2.64610005989671E+0001  6197
 2.64870005995035E+0001  6198
 2.65130006000400E+0001  6330
 2.65390006005764E+0001  6265
 2.65650006011128E+0001  6284
 2.65910006016493E+0001  6256
 2.66170006021857E+0001  6349
 2.66430006027222E+0001  6296
 2.66690006032586E+0001  6250
 2.66950006037951E+0001  6309
 2.67210006043315E+0001  6287
 2.67470006048679E+0001  6209
 2.67730006054044E+0001  6276
 2.67990006059408E+0001  6255
 2.68250006064773E+0001  6285
 2.68510006070137E+0001  6237
 2.68770006075501E+0001  6189
 2.69030006080866E+0001  6149
 2.69290006086230E+0001  6214
 2.69550006091595E+0001  6238
 2.69810006096959E+0001  6159
 2.70070006102324E+0001  6235
 2.70330006107688E+0001  6263
 2.70590006113052E+0001  6166
 2.70850006118417E+0001  6150
 2.71110006123781E+0001  6272
 2.71370006129146E+0001  6309
 2.71630006134510E+0001  6291
 2.71890006139874E+0001  6285
 2.72150006145239E+0001  6223
 2.72410006150603E+0001  6136
 2.72670006155968E+0001  6140
 2.72930006161332E+0001  6154
 2.73190006166697E+0001  6124
 2.73450006172061E+0001  6193
 2.73710006177425E+0001  6182
 2.73970006182790E+0001  6126
 2.74230006188154E+0001  6236
 2.74490006193519E+0001  6274
 2.74750006198883E+0001  6176
 2.75010006204247E+0001  6115
 2.75270006209612E+0001  6211
 2.75530006214976E+0001  6263
 2.75790006220341E+0001  6179
 2.76050006225705E+0001  6223
 2.76310006231070E+0001  6189
 2.76570006236434E+0001  6227
 2.76830006241798E+0001  6340
 2.77090006247163E+0001  6282
 2.77350006252527E+0001  6205
 2.77610006257892E+0001  6180
 2.77870006263256E+0001  6155
 2.78130006268620E+0001  6216
 2.78390006273985E+0001  6319
 2.78650006279349E+0001  6202
 2.78910006284714E+0001  6130
 2.79170006290078E+0001  6136
 2.79430006295443E+0001  6148
 2.79690006300807E+0001  6191
 2.79950006306171E+0001  6309
 2.80210006311536E+0001  6195
 2.80470006316900E+0001  6226
 2.80730006322265E+0001  6083
 2.80990006327629E+0001  6216
 2.81250006332994E+0001  6141
 2.81510006338358E+0001  6263
 2.81770006343722E+0001  6263
 2.82030006349087E+0001  6287
 2.82290006354451E+0001  6310
 2.82550006359816E+0001  6205
 2.82810006365180E+0001  6334
 2.83070006370544E+0001  6193
 2.83330006375909E+0001  6284
 2.83590006381273E+0001  6197
 2.83850006386638E+0001  6304
 2.84110006392002E+0001  6220
 2.84370006397367E+0001  6362
 2.84630006402731E+0001  6284
 2.84890006408095E+0001  6310
 2.85150006413460E+0001  6368
 2.85410006418824E+0001  6439
 2.85670006424189E+0001  6386
 2.85930006429553E+0001  6591
 2.86190006434917E+0001  6706
 2.86450006440282E+0001  6685
 2.86710006445646E+0001  6521
 2.86970006451011E+0001  6398
 2.87230006456375E+0001  6534
 2.87490006461740E+0001  6398
 2.87750006467104E+0001  6363
 2.88010006472468E+0001  6332
 2.88270006477833E+0001  6286
 2.88530006483197E+0001  6340
 2.88790006488562E+0001  6457
 2.89050006493926E+0001  6368
 2.89310006499290E+0001  6466
 2.89570006504655E+0001  6602
 2.89830006510019E+0001  6383
 2.90090006515384E+0001  6397
 2.90350006520748E+0001  6395
 2.90610006526113E+0001  6468
 2.90870006531477E+0001  6375
 2.91130006536841E+0001  6367
 2.91390006542206E+0001  6432
 2.91650006547570E+0001  6445
 2.91910006552935E+0001  6369
 2.92170006558299E+0001  6407
 2.92430006563663E+0001  6474
 2.92690006569028E+0001  6537
 2.92950006574392E+0001  6568
 2.93210006579757E+0001  6549
 2.93470006585121E+0001  6569
 2.93730006590486E+0001  6543
 2.93990006595850E+0001  6533
 2.94250006601214E+0001  6574
 2.94510006606579E+0001  6657
 2.94770006611943E+0001  6601
 2.95030006617308E+0001  6607
 2.95290006622672E+0001  6669
 2.95550006628036E+0001  6578
 2.95810006633401E+0001  6530
 2.96070006638765E+0001  6600
 2.96330006644130E+0001  6661
 2.96590006649494E+0001  6610
 2.96850006654859E+0001  6630
 2.97110006660223E+0001  6661
 2.97370006665587E+0001  6676
 2.97630006670952E+0001  6643
 2.97890006676316E+0001  6702
 2.98150006681681E+0001  6680
 2.98410006687045E+0001  6588
 2.98670006692410E+0001  6730
 2.98930006697774E+0001  6831
 2.99190006703138E+0001  6750
 2.99450006708503E+0001  6682
 2.99710006713867E+0001  6706
 2.99970006719232E+0001  6755
 3.00230006724596E+0001  6759
 3.00490006729960E+0001  6755
 3.00750006735325E+0001  6777
 3.01010006740689E+0001  6816
 3.01270006746054E+0001  6780
 3.01530006751418E+0001  6786
 3.01790006756783E+0001  6844
 3.02050006762147E+0001  6889
 3.02310006767511E+0001  6994
 3.02570006772876E+0001  6916
 3.02830006778240E+0001  6865
 3.03090006783605E+0001  6831
 3.03350006788969E+0001  6783
 3.03610006794333E+0001  6746
 3.03870006799698E+0001  6757
 3.04130006805062E+0001  6724
 3.04390006810427E+0001  6840
 3.04650006815791E+0001  6692
 3.04910006821156E+0001  6780
 3.05170006826520E+0001  6740
 3.05430006831884E+0001  6757
 3.05690006837249E+0001  6740
 3.05950006842613E+0001  6580
 3.06210006847978E+0001  6620
 3.06470006853342E+0001  6637
 3.06730006858706E+0001  6725
 3.06990006864071E+0001  6699
 3.07250006869435E+0001  6615
 3.07510006874800E+0001  6558
 3.07770006880164E+0001  6515
 3.08030006885529E+0001  6542
 3.08290006890893E+0001  6666
 3.08550006896257E+0001  6635
 3.08810006901622E+0001  6523
 3.09070006906986E+0001  6463
 3.09330006912351E+0001  6462
 3.09590006917715E+0001  6508
 3.09850006923079E+0001  6359
 3.10110006928444E+0001  6442
 3.10370006933808E+0001  6434
 3.10630006939173E+0001  6344
 3.10890006944537E+0001  6498
 3.11150006949902E+0001  6407
 3.11410006955266E+0001  6337
 3.11670006960630E+0001  6355
 3.11930006965995E+0001  6322
 3.12190006971359E+0001  6226
 3.12450006976724E+0001  6263
 3.12710006982088E+0001  6254
 3.12970006987453E+0001  6331
 3.13230006992817E+0001  6246
 3.13490006998181E+0001  6181
 3.13750007003546E+0001  6140
 3.14010007008910E+0001  6124
 3.14270007014275E+0001  6176
 3.14530007019639E+0001  6274
 3.14790007025003E+0001  6077
 3.15050007030368E+0001  6110
 3.15310007035732E+0001  6129
 3.15570007041097E+0001  6133
 3.15830007046461E+0001  6141
 3.16090007051826E+0001  6083
 3.16350007057190E+0001  6065
 3.16610007062554E+0001  5913
 3.16870007067919E+0001  6094
 3.17130007073283E+0001  6143
 3.17390007078648E+0001  6049
 3.17650007084012E+0001  6032
 3.17910007089376E+0001  6117
 3.18170007094741E+0001  6078
 3.18430007100105E+0001  5953
 3.18690007105470E+0001  6086
 3.18950007110834E+0001  6087
 3.19210007116199E+0001  5993
 3.19470007121563E+0001  5946
 3.19730007126927E+0001  6012
 3.19990007132292E+0001  5904
 3.20250007137656E+0001  5954
 3.20510007143021E+0001  5950
 3.20770007148385E+0001  5973
 3.21030007153749E+0001  5903
 3.21290007159114E+0001  5847
 3.21550007164478E+0001  5811
 3.21810007169843E+0001  5951
 3.22070007175207E+0001  5915
 3.22330007180572E+0001  5905
 3.22590007185936E+0001  5885
 3.22850007191300E+0001  5883
 3.23110007196665E+0001  5952
 3.23370007202029E+0001  5838
 3.23630007207394E+0001  5813
 3.23890007212758E+0001  5818
 3.24150007218122E+0001  5761
 3.24410007223487E+0001  5777
 3.24670007228851E+0001  5788
 3.24930007234216E+0001  5825
 3.25190007239580E+0001  5859
 3.25450007244945E+0001  5874
 3.25710007250309E+0001  5858
 3.25970007255673E+0001  5787
 3.26230007261038E+0001  5839
 3.26490007266402E+0001  5871
 3.26750007271767E+0001  5810
 3.27010007277131E+0001  5779
 3.27270007282495E+0001  5701
 3.27530007287860E+0001  5761
 3.27790007293224E+0001  5812
 3.28050007298589E+0001  5748
 3.28310007303953E+0001  5797
 3.28570007309318E+0001  5773
 3.28830007314682E+0001  5807
 3.29090007320046E+0001  5922
 3.29350007325411E+0001  5891
 3.29610007330775E+0001  5915
 3.29870007336140E+0001  5865
 3.30130007341504E+0001  5924
 3.30390007346869E+0001  5824
 3.30650007352233E+0001  5836
 3.30910007357597E+0001  5880
 3.31170007362962E+0001  5786
 3.31430007368326E+0001  5817
 3.31690007373691E+0001  5837
 3.31950007379055E+0001  5820
 3.32210007384419E+0001  5826
 3.32470007389784E+0001  5935
 3.32730007395148E+0001  6071
 3.32990007400513E+0001  5994
 3.33250007405877E+0001  5934
 3.33510007411242E+0001  5893
 3.33770007416606E+0001  5957
 3.34030007421970E+0001  5935
 3.34290007427335E+0001  5858
 3.34550007432699E+0001  5909
 3.34810007438064E+0001  5969
 3.35070007443428E+0001  5969
 3.35330007448792E+0001  6017
 3.35590007454157E+0001  5893
 3.35850007459521E+0001  5850
 3.36110007464886E+0001  5886
 3.36370007470250E+0001  6025
 3.36630007475615E+0001  6007
 3.36890007480979E+0001  6056
 3.37150007486343E+0001  6110
 3.37410007491708E+0001  6142
 3.37670007497072E+0001  5945
 3.37930007502437E+0001  5993
 3.38190007507801E+0001  6091
 3.38450007513165E+0001  6120
 3.38710007518530E+0001  6067
 3.38970007523894E+0001  5981
 3.39230007529259E+0001  6132
 3.39490007534623E+0001  6327
 3.39750007539988E+0001  6115
 3.40010007545352E+0001  6298
 3.40270007550716E+0001  6165
 3.40530007556081E+0001  6302
 3.40790007561445E+0001  6410
 3.41050007566810E+0001  6388
 3.41310007572174E+0001  6342
 3.41570007577538E+0001  6402
 3.41830007582903E+0001  6382
 3.42090007588267E+0001  6584
 3.42350007593632E+0001  6589
 3.42610007598996E+0001  6630
 3.42870007604361E+0001  6557
 3.43130007609725E+0001  6542
 3.43390007615089E+0001  6704
 3.43650007620454E+0001  6597
 3.43910007625818E+0001  6699
 3.44170007631183E+0001  6704
 3.44430007636547E+0001  6778
 3.44690007641912E+0001  6854
 3.44950007647276E+0001  6843
 3.45210007652640E+0001  6832
 3.45470007658005E+0001  6894
 3.45730007663369E+0001  7042
 3.45990007668734E+0001  7203
 3.46250007674098E+0001  7268
 3.46510007679462E+0001  7154
 3.46770007684827E+0001  7168
 3.47030007690191E+0001  7255
 3.47290007695556E+0001  7344
 3.47550007700920E+0001  7428
 3.47810007706285E+0001  7528
 3.48070007711649E+0001  7464
 3.48330007717013E+0001  7496
 3.48590007722378E+0001  7621
 3.48850007727742E+0001  7559
 3.49110007733107E+0001  7552
 3.49370007738471E+0001  7684
 3.49630007743835E+0001  7795
 3.49890007749200E+0001  7832
 3.50150007754564E+0001  7848
 3.50410007759929E+0001  7874
 3.50670007765293E+0001  7932
 3.50930007770658E+0001  7969
 3.51190007776022E+0001  7995
 3.51450007781386E+0001  7941
 3.51710007786751E+0001  7967
 3.51970007792115E+0001  8042
 3.52230007797480E+0001  8018
 3.52490007802844E+0001  7969
 3.52750007808208E+0001  7975
 3.53010007813573E+0001  8073
 3.53270007818937E+0001  8038
 3.53530007824302E+0001  7990
 3.53790007829666E+0001  7980
 3.54050007835031E+0001  8033
 3.54310007840395E+0001  8047
 3.54570007845759E+0001  7954
 3.54830007851124E+0001  8011
 3.55090007856488E+0001  8000
 3.55350007861853E+0001  7910
 3.55610007867217E+0001  7859
 3.55870007872581E+0001  7913
 3.56130007877946E+0001  8023
 3.56390007883310E+0001  7903
 3.56650007888675E+0001  7940
 3.56910007894039E+0001  7785
 3.57170007899404E+0001  7751
 3.57430007904768E+0001  7774
 3.57690007910132E+0001  7665
 3.57950007915497E+0001  7587
 3.58210007920861E+0001  7556
 3.58470007926226E+0001  7540
 3.58730007931590E+0001  7435
 3.58990007936954E+0001  7439
 3.59250007942319E+0001  7472
 3.59510007947683E+0001  7324
 3.59770007953048E+0001  7302
 3.60030007958412E+0001  7360
 3.60290007963777E+0001  7272
 3.60550007969141E+0001  7281
 3.60810007974505E+0001  7050
 3.61070007979870E+0001  7031
 3.61330007985234E+0001  7003
 3.61590007990599E+0001  7010
 3.61850007995963E+0001  6905
 3.62110008001328E+0001  6825
 3.62370008006692E+0001  6662
 3.62630008012056E+0001  6705
 3.62890008017421E+0001  6730
 3.63150008022785E+0001  6620
 3.63410008028150E+0001  6629
 3.63670008033514E+0001  6366
 3.63930008038878E+0001  6340
 3.64190008044243E+0001  6154
 3.64450008049607E+0001  6245
 3.64710008054972E+0001  6243
 3.64970008060336E+0001  6134
 3.65230008065701E+0001  6168
 3.65490008071065E+0001  6087
 3.65750008076429E+0001  5959
 3.66010008081794E+0001  5949
 3.66270008087158E+0001  5971
 3.66530008092523E+0001  5862
 3.66790008097887E+0001  5803
 3.67050008103251E+0001  5747
 3.67310008108616E+0001  5803
 3.67570008113980E+0001  5689
 3.67830008119345E+0001  5749
 3.68090008124709E+0001  5692
 3.68350008130074E+0001  5696
 3.68610008135438E+0001  5649
 3.68870008140802E+0001  5587
 3.69130008146167E+0001  5546
 3.69390008151531E+0001  5585
 3.69650008156896E+0001  5533
 3.69910008162260E+0001  5496
 3.70170008167624E+0001  5451
 3.70430008172989E+0001  5427
 3.70690008178353E+0001  5515
 3.70950008183718E+0001  5481
 3.71210008189082E+0001  5435
 3.71470008194447E+0001  5302
 3.71730008199811E+0001  5300
 3.71990008205175E+0001  5343
 3.72250008210540E+0001  5192
 3.72510008215904E+0001  5097
 3.72770008221269E+0001  5125
 3.73030008226633E+0001  5069
 3.73290008231997E+0001  5118
 3.73550008237362E+0001  5110
 3.73810008242726E+0001  5044
 3.74070008248091E+0001  5005
 3.74330008253455E+0001  4899
 3.74590008258820E+0001  4889
 3.74850008264184E+0001  4890
 3.75110008269548E+0001  4872
 3.75370008274913E+0001  4811
 3.75630008280277E+0001  4817
 3.75890008285642E+0001  4778
 3.76150008291006E+0001  4766
 3.76410008296371E+0001  4697
 3.76670008301735E+0001  4615
 3.76930008307099E+0001  4641
 3.77190008312464E+0001  4538
 3.77450008317828E+0001  4544
 3.77710008323193E+0001  4573
 3.77970008328557E+0001  4509
 3.78230008333921E+0001  4538
 3.78490008339286E+0001  4468
 3.78750008344650E+0001  4385
 3.79010008350015E+0001  4370
 3.79270008355379E+0001  4404
 3.79530008360744E+0001  4458
 3.79790008366108E+0001  4416
 3.80050008371472E+0001  4372
 3.80310008376837E+0001  4352
 3.80570008382201E+0001  4323
 3.80830008387566E+0001  4267
 3.81090008392930E+0001  4308
 3.81350008398294E+0001  4390
 3.81610008403659E+0001  4313
 3.81870008409023E+0001  4242
 3.82130008414388E+0001  4409
 3.82390008419752E+0001  4350
 3.82650008425117E+0001  4334
 3.82910008430481E+0001  4240
 3.83170008435845E+0001  4243
 3.83430008441210E+0001  4172
 3.83690008446574E+0001  4244
 3.83950008451939E+0001  4283
 3.84210008457303E+0001  4289
 3.84470008462667E+0001  4250
 3.84730008468032E+0001  4159
 3.84990008473396E+0001  4182
 3.85250008478761E+0001  4205
 3.85510008484125E+0001  4230
 3.85770008489490E+0001  4147
 3.86030008494854E+0001  4159
 3.86290008500218E+0001  4169
 3.86550008505583E+0001  4172
 3.86810008510947E+0001  4131
 3.87070008516312E+0001  4237
 3.87330008521676E+0001  4117
 3.87590008527040E+0001  4234
 3.87850008532405E+0001  4141
 3.88110008537769E+0001  4166
 3.88370008543134E+0001  4238
 3.88630008548498E+0001  4069
 3.88890008553863E+0001  4190
 3.89150008559227E+0001  4207
 3.89410008564591E+0001  4120
 3.89670008569956E+0001  4044
 3.89930008575320E+0001  4054
 3.90190008580685E+0001  4129
 3.90450008586049E+0001  4060
 3.90710008591413E+0001  4085
 3.90970008596778E+0001  4046
 3.91230008602142E+0001  3974
 3.91490008607507E+0001  4037
 3.91750008612871E+0001  4039
 3.92010008618236E+0001  3985
 3.92270008623600E+0001  4056
 3.92530008628964E+0001  4031
 3.92790008634329E+0001  4013
 3.93050008639693E+0001  4050
 3.93310008645058E+0001  4073
 3.93570008650422E+0001  4031
 3.93830008655787E+0001  4122
 3.94090008661151E+0001  4006
 3.94350008666515E+0001  4097
 3.94610008671880E+0001  4043
 3.94870008677244E+0001  4042
 3.95130008682609E+0001  4055
 3.95390008687973E+0001  4085
 3.95650008693337E+0001  4070
 3.95910008698702E+0001  4069
 3.96170008704066E+0001  4079
 3.96430008709431E+0001  3963
 3.96690008714795E+0001  4029
 3.96950008720160E+0001  4021
 3.97210008725524E+0001  3951
 3.97470008730888E+0001  3893
 3.97730008736253E+0001  3941
 3.97990008741617E+0001  3982
 3.98250008746982E+0001  3984
 3.98510008752346E+0001  3993
 3.98770008757710E+0001  3912
 3.99030008763075E+0001  3868
 3.99290008768439E+0001  3947
 3.99550008773804E+0001  4007
 3.99810008779168E+0001  3978
 4.00070008784533E+0001  3951
 4.00330008789897E+0001  3988
 4.00590008795261E+0001  4081
 4.00850008800626E+0001  4127
 4.01110008805990E+0001  3969
 4.01370008811355E+0001  3940
 4.01630008816719E+0001  3992
 4.01890008822083E+0001  4008
 4.02150008827448E+0001  4025
 4.02410008832812E+0001  4040
 4.02670008838177E+0001  4103
 4.02930008843541E+0001  4090
 4.03190008848906E+0001  4009
 4.03450008854270E+0001  3986
 4.03710008859634E+0001  4001
 4.03970008864999E+0001  3943
 4.04230008870363E+0001  3946
 4.04490008875728E+0001  3947
 4.04750008881092E+0001  3878
 4.05010008886456E+0001  3950
 4.05270008891821E+0001  3987
 4.05530008897185E+0001  3946
 4.05790008902550E+0001  3972
 4.06050008907914E+0001  3992
 4.06310008913279E+0001  3918
 4.06570008918643E+0001  3905
 4.06830008924007E+0001  3971
 4.07090008929372E+0001  3924
 4.07350008934736E+0001  3921
 4.07610008940101E+0001  3937
 4.07870008945465E+0001  3972
 4.08130008950830E+0001  3861
 4.08390008956194E+0001  3881
 4.08650008961558E+0001  3940
 4.08910008966923E+0001  3973
 4.09170008972287E+0001  3941
 4.09430008977652E+0001  3957
 4.09690008983016E+0001  3882
 4.09950008988380E+0001  3833
 4.10210008993745E+0001  3808
 4.10470008999109E+0001  3964
 4.10730009004474E+0001  3898
 4.10990009009838E+0001  3910
 4.11250009015203E+0001  3893
 4.11510009020567E+0001  3901
 4.11770009025931E+0001  3977
 4.12030009031296E+0001  3915
 4.12290009036660E+0001  3899
 4.12550009042025E+0001  3958
 4.12810009047389E+0001  3940
 4.13070009052753E+0001  3904
 4.13330009058118E+0001  3850
 4.13590009063482E+0001  3925
 4.13850009068847E+0001  3914
 4.14110009074211E+0001  3970
 4.14370009079576E+0001  3876
 4.14630009084940E+0001  3930
 4.14890009090304E+0001  3941
 4.15150009095669E+0001  3846
 4.15410009101033E+0001  3914
 4.15670009106398E+0001  4036
 4.15930009111762E+0001  3877
 4.16190009117126E+0001  3874
 4.16450009122491E+0001  3906
 4.16710009127855E+0001  3925
 4.16970009133220E+0001  3814
 4.17230009138584E+0001  3844
 4.17490009143949E+0001  3902
 4.17750009149313E+0001  3819
 4.18010009154677E+0001  3809
 4.18270009160042E+0001  3939
 4.18530009165406E+0001  3850
 4.18790009170771E+0001  3879
 4.19050009176135E+0001  3885
 4.19310009181499E+0001  3821
 4.19570009186864E+0001  3932
 4.19830009192228E+0001  3876
 4.20090009197593E+0001  3898
 4.20350009202957E+0001  3900
 4.20610009208322E+0001  3891
 4.20870009213686E+0001  3836
 4.21130009219050E+0001  3807
 4.21390009224415E+0001  3864
 4.21650009229779E+0001  3850
 4.21910009235144E+0001  3821
 4.22170009240508E+0001  3848
 4.22430009245872E+0001  3873
 4.22690009251237E+0001  3844
 4.22950009256601E+0001  3861
 4.23210009261966E+0001  3864
 4.23470009267330E+0001  3889
 4.23730009272695E+0001  3818
 4.23990009278059E+0001  3824
 4.24250009283423E+0001  3895
 4.24510009288788E+0001  3843
 4.24770009294152E+0001  3974
 4.25030009299517E+0001  3938
 4.25290009304881E+0001  3916
 4.25550009310246E+0001  3924
 4.25810009315610E+0001  3950
 4.26070009320974E+0001  4118
 4.26330009326339E+0001  4003
 4.26590009331703E+0001  4109
 4.26850009337068E+0001  4202
 4.27110009342432E+0001  4221
 4.27370009347796E+0001  4294
 4.27630009353161E+0001  4304
 4.27890009358525E+0001  4402
 4.28150009363890E+0001  4526
 4.28410009369254E+0001  4516
 4.28670009374619E+0001  4534
 4.28930009379983E+0001  4588
 4.29190009385347E+0001  4628
 4.29450009390712E+0001  4623
 4.29710009396076E+0001  4674
 4.29970009401441E+0001  4712
 4.30230009406805E+0001  4735
 4.30490009412169E+0001  4794
 4.30750009417534E+0001  4778
 4.31010009422898E+0001  4845
 4.31270009428263E+0001  4911
 4.31530009433627E+0001  4909
 4.31790009438992E+0001  4942
 4.32050009444356E+0001  4944
 4.32310009449720E+0001  4988
 4.32570009455085E+0001  5004
 4.32830009460449E+0001  4997
 4.33090009465814E+0001  5018
 4.33350009471178E+0001  4980
 4.33610009476542E+0001  4913
 4.33870009481907E+0001  5029
 4.34130009487271E+0001  5052
 4.34390009492636E+0001  4925
 4.34650009498000E+0001  4867
 4.34910009503365E+0001  4832
 4.35170009508729E+0001  4845
 4.35430009514093E+0001  4690
 4.35690009519458E+0001  4618
 4.35950009524822E+0001  4670
 4.36210009530187E+0001  4694
 4.36470009535551E+0001  4564
 4.36730009540915E+0001  4466
 4.36990009546280E+0001  4404
 4.37250009551644E+0001  4352
 4.37510009557009E+0001  4242
 4.37770009562373E+0001  4157
 4.38030009567738E+0001  4154
 4.38290009573102E+0001  4095
 4.38550009578466E+0001  3990
 4.38810009583831E+0001  3979
 4.39070009589195E+0001  3909
 4.39330009594560E+0001  3900
 4.39590009599924E+0001  3845
 4.39850009605289E+0001  3786
 4.40110009610653E+0001  3823
 4.40370009616017E+0001  3737
 4.40630009621382E+0001  3781
 4.40890009626746E+0001  3743
 4.41150009632111E+0001  3604
 4.41410009637475E+0001  3521
 4.41670009642839E+0001  3678
 4.41930009648204E+0001  3599
 4.42190009653568E+0001  3538
 4.42450009658933E+0001  3573
 4.42710009664297E+0001  3546
 4.42970009669662E+0001  3596
 4.43230009675026E+0001  3525
 4.43490009680390E+0001  3483
 4.43750009685755E+0001  3541
 4.44010009691119E+0001  3545
 4.44270009696484E+0001  3534
 4.44530009701848E+0001  3460
 4.44790009707212E+0001  3443
 4.45050009712577E+0001  3605
 4.45310009717941E+0001  3465
 4.45570009723306E+0001  3446
 4.45830009728670E+0001  3406
 4.46090009734035E+0001  3417
 4.46350009739399E+0001  3511
 4.46610009744763E+0001  3581
 4.46870009750128E+0001  3507
 4.47130009755492E+0001  3497
 4.47390009760857E+0001  3527
 4.47650009766221E+0001  3458
 4.47910009771585E+0001  3459
 4.48170009776950E+0001  3482
 4.48430009782314E+0001  3362
 4.48690009787679E+0001  3404
 4.48950009793043E+0001  3429
 4.49210009798408E+0001  3349
 4.49470009803772E+0001  3403
 4.49730009809136E+0001  3411
 4.49990009814501E+0001  3432
 4.50250009819865E+0001  3319
 4.50510009825230E+0001  3317
 4.50770009830594E+0001  3419
 4.51030009835958E+0001  3350
 4.51290009841323E+0001  3332
 4.51550009846687E+0001  3322
 4.51810009852052E+0001  3410
 4.52070009857416E+0001  3450
 4.52330009862781E+0001  3375
 4.52590009868145E+0001  3312
 4.52850009873509E+0001  3334
 4.53110009878874E+0001  3350
 4.53370009884238E+0001  3334
 4.53630009889603E+0001  3377
 4.53890009894967E+0001  3375
 4.54150009900331E+0001  3321
 4.54410009905696E+0001  3310
 4.54670009911060E+0001  3305
 4.54930009916425E+0001  3297
 4.55190009921789E+0001  3319
 4.55450009927154E+0001  3378
 4.55710009932518E+0001  3426
 4.55970009937882E+0001  3403
 4.56230009943247E+0001  3337
 4.56490009948611E+0001  3347
 4.56750009953976E+0001  3396
 4.57010009959340E+0001  3420
 4.57270009964705E+0001  3402
 4.57530009970069E+0001  3355
 4.57790009975433E+0001  3385
 4.58050009980798E+0001  3359
 4.58310009986162E+0001  3350
 4.58570009991527E+0001  3411
 4.58830009996891E+0001  3318
 4.59090010002255E+0001  3327
 4.59350010007620E+0001  3359
 4.59610010012984E+0001  3296
 4.59870010018349E+0001  3339
 4.60130010023713E+0001  3374
 4.60390010029078E+0001  3380
 4.60650010034442E+0001  3409
 4.60910010039806E+0001  3343
 4.61170010045171E+0001  3300
 4.61430010050535E+0001  3373
 4.61690010055900E+0001  3247
 4.61950010061264E+0001  3301
 4.62210010066628E+0001  3446
 4.62470010071993E+0001  3348
 4.62730010077357E+0001  3338
 4.62990010082722E+0001  3342
 4.63250010088086E+0001  3327
 4.63510010093451E+0001  3339
 4.63770010098815E+0001  3220
 4.64030010104179E+0001  3252
 4.64290010109544E+0001  3301
 4.64550010114908E+0001  3417
 4.64810010120273E+0001  3368
 4.65070010125637E+0001  3353
 4.65330010131001E+0001  3325
 4.65590010136366E+0001  3381
 4.65850010141730E+0001  3312
 4.66110010147095E+0001  3350
 4.66370010152459E+0001  3353
 4.66630010157824E+0001  3395
 4.66890010163188E+0001  3354
 4.67150010168552E+0001  3338
 4.67410010173917E+0001  3353
 4.67670010179281E+0001  3299
 4.67930010184646E+0001  3389
 4.68190010190010E+0001  3284
 4.68450010195374E+0001  3342
 4.68710010200739E+0001  3393
 4.68970010206103E+0001  3362
 4.69230010211468E+0001  3253
 4.69490010216832E+0001  3392
 4.69750010222197E+0001  3283
 4.70010010227561E+0001  3431
 4.70270010232925E+0001  3421
 4.70530010238290E+0001  3364
 4.70790010243654E+0001  3333
 4.71050010249019E+0001  3268
 4.71310010254383E+0001  3349
 4.71570010259748E+0001  3347
 4.71830010265112E+0001  3328
 4.72090010270476E+0001  3294
 4.72350010275841E+0001  3371
 4.72610010281205E+0001  3293
 4.72870010286570E+0001  3285
 4.73130010291934E+0001  3263
 4.73390010297298E+0001  3333
 4.73650010302663E+0001  3332
 4.73910010308027E+0001  3308
 4.74170010313392E+0001  3359
 4.74430010318756E+0001  3291
 4.74690010324121E+0001  3351
 4.74950010329485E+0001  3334
 4.75210010334849E+0001  3340
 4.75470010340214E+0001  3255
 4.75730010345578E+0001  3306
 4.75990010350943E+0001  3377
 4.76250010356307E+0001  3363
 4.76510010361671E+0001  3350
 4.76770010367036E+0001  3366
 4.77030010372400E+0001  3338
 4.77290010377765E+0001  3297
 4.77550010383129E+0001  3327
 4.77810010388494E+0001  3343
 4.78070010393858E+0001  3274
 4.78330010399222E+0001  3295
 4.78590010404587E+0001  3246
 4.78850010409951E+0001  3203
 4.79110010415316E+0001  3318
 4.79370010420680E+0001  3320
 4.79630010426044E+0001  3245
 4.79890010431409E+0001  3276
 4.80150010436773E+0001  3352
 4.80410010442138E+0001  3334
 4.80670010447502E+0001  3432
 4.80930010452867E+0001  3392
 4.81190010458231E+0001  3220
 4.81450010463595E+0001  3280
 4.81710010468960E+0001  3347
 4.81970010474324E+0001  3300
 4.82230010479689E+0001  3243
 4.82490010485053E+0001  3240
 4.82750010490417E+0001  3254
 4.83010010495782E+0001  3254
 4.83270010501146E+0001  3297
 4.83530010506511E+0001  3302
 4.83790010511875E+0001  3307
 4.84050010517240E+0001  3294
 4.84310010522604E+0001  3242
 4.84570010527968E+0001  3256
 4.84830010533333E+0001  3292
 4.85090010538697E+0001  3312
 4.85350010544062E+0001  3285
 4.85610010549426E+0001  3284
 4.85870010554790E+0001  3287
 4.86130010560155E+0001  3335
 4.86390010565519E+0001  3300
 4.86650010570884E+0001  3317
 4.86910010576248E+0001  3301
 4.87170010581613E+0001  3290
 4.87430010586977E+0001  3239
 4.87690010592341E+0001  3235
 4.87950010597706E+0001  3212
 4.88210010603070E+0001  3255
 4.88470010608435E+0001  3271
 4.88730010613799E+0001  3241
 4.88990010619164E+0001  3219
 4.89250010624528E+0001  3179
 4.89510010629892E+0001  3339
 4.89770010635257E+0001  3320
 4.90030010640621E+0001  3247
 4.90290010645986E+0001  3253
 4.90550010651350E+0001  3218
 4.90810010656714E+0001  3218
 4.91070010662079E+0001  3399
 4.91330010667443E+0001  3216
 4.91590010672808E+0001  3264
 4.91850010678172E+0001  3312
 4.92110010683537E+0001  3318
 4.92370010688901E+0001  3312
 4.92630010694265E+0001  3240
 4.92890010699630E+0001  3403
 4.93150010704994E+0001  3355
 4.93410010710359E+0001  3317
 4.93670010715723E+0001  3214
 4.93930010721087E+0001  3213
 4.94190010726452E+0001  3306
 4.94450010731816E+0001  3331
 4.94710010737181E+0001  3327
 4.94970010742545E+0001  3267
 4.95230010747910E+0001  3337
 4.95490010753274E+0001  3417
 4.95750010758638E+0001  3370
 4.96010010764003E+0001  3403
 4.96270010769367E+0001  3337
 4.96530010774732E+0001  3436
 4.96790010780096E+0001  3410
 4.97050010785460E+0001  3453
 4.97310010790825E+0001  3211
 4.97570010796189E+0001  3320
 4.97830010801554E+0001  3356
 4.98090010806918E+0001  3290
 4.98350010812283E+0001  3335
 4.98610010817647E+0001  3401
 4.98870010823011E+0001  3358
 4.99130010828376E+0001  3251
 4.99390010833740E+0001  3337
 4.99650010839105E+0001  3266
 4.99910010844469E+0001  3374
 5.00170010849833E+0001  3446
 5.00430010855198E+0001  3348
 5.00690010860562E+0001  3262
 5.00950010865927E+0001  3307
 5.01210010871291E+0001  3274
 5.01470010876656E+0001  3365
 5.01730010882020E+0001  3335
 5.01990010887384E+0001  3282
 5.02250010892749E+0001  3345
 5.02510010898113E+0001  3335
 5.02770010903478E+0001  3341
 5.03030010908842E+0001  3304
 5.03290010914207E+0001  3266
 5.03550010919571E+0001  3307
 5.03810010924935E+0001  3363
 5.04070010930300E+0001  3412
 5.04330010935664E+0001  3368
 5.04590010941029E+0001  3292
 5.04850010946393E+0001  3378
 5.05110010951757E+0001  3365
 5.05370010957122E+0001  3384
 5.05630010962486E+0001  3352
 5.05890010967851E+0001  3336
 5.06150010973215E+0001  3403
 5.06410010978580E+0001  3384
 5.06670010983944E+0001  3323
 5.06930010989308E+0001  3261
 5.07190010994673E+0001  3289
 5.07450011000037E+0001  3354
 5.07710011005402E+0001  3363
 5.07970011010766E+0001  3381
 5.08230011016130E+0001  3395
 5.08490011021495E+0001  3382
 5.08750011026859E+0001  3380
 5.09010011032224E+0001  3373
 5.09270011037588E+0001  3379
 5.09530011042953E+0001  3431
 5.09790011048317E+0001  3426
 5.10050011053681E+0001  3346
 5.10310011059046E+0001  3359
 5.10570011064410E+0001  3427
 5.10830011069775E+0001  3401
 5.11090011075139E+0001  3372
 5.11350011080503E+0001  3366
 5.11610011085868E+0001  3377
 5.11870011091232E+0001  3403
 5.12130011096597E+0001  3414
 5.12390011101961E+0001  3435
 5.12650011107326E+0001  3478
 5.12910011112690E+0001  3465
 5.13170011118054E+0001  3419
 5.13430011123419E+0001  3423
 5.13690011128783E+0001  3413
 5.13950011134148E+0001  3391
 5.14210011139512E+0001  3495
 5.14470011144876E+0001  3433
 5.14730011150241E+0001  3444
 5.14990011155605E+0001  3490
 5.15250011160970E+0001  3424
 5.15510011166334E+0001  3476
 5.15770011171699E+0001  3465
 5.16030011177063E+0001  3455
 5.16290011182427E+0001  3423
 5.16550011187792E+0001  3474
 5.16810011193156E+0001  3440
 5.17070011198521E+0001  3473
 5.17330011203885E+0001  3481
 5.17590011209249E+0001  3504
 5.17850011214614E+0001  3459
 5.18110011219978E+0001  3398
 5.18370011225343E+0001  3460
 5.18630011230707E+0001  3401
 5.18890011236072E+0001  3412
 5.19150011241436E+0001  3523
 5.19410011246800E+0001  3432
 5.19670011252165E+0001  3348
 5.19930011257529E+0001  3372
 5.20190011262894E+0001  3401
 5.20450011268258E+0001  3470
 5.20710011273623E+0001  3396
 5.20970011278987E+0001  3424
 5.21230011284351E+0001  3481
 5.21490011289716E+0001  3503
 5.21750011295080E+0001  3546
 5.22010011300445E+0001  3434
 5.22270011305809E+0001  3562
 5.22530011311173E+0001  3442
 5.22790011316538E+0001  3436
 5.23050011321902E+0001  3461
 5.23310011327267E+0001  3465
 5.23570011332631E+0001  3512
 5.23830011337996E+0001  3417
 5.24090011343360E+0001  3495
 5.24350011348724E+0001  3540
 5.24610011354089E+0001  3523
 5.24870011359453E+0001  3501
 5.25130011364818E+0001  3514
 5.25390011370182E+0001  3531
 5.25650011375546E+0001  3436
 5.25910011380911E+0001  3483
 5.26170011386275E+0001  3554
 5.26430011391640E+0001  3463
 5.26690011397004E+0001  3547
 5.26950011402369E+0001  3533
 5.27210011407733E+0001  3566
 5.27470011413097E+0001  3518
 5.27730011418462E+0001  3561
 5.27990011423826E+0001  3600
 5.28250011429191E+0001  3660
 5.28510011434555E+0001  3602
 5.28770011439919E+0001  3668
 5.29030011445284E+0001  3603
 5.29290011450648E+0001  3562
 5.29550011456013E+0001  3584
 5.29810011461377E+0001  3649
 5.30070011466742E+0001  3608
 5.30330011472106E+0001  3584
 5.30590011477470E+0001  3577
 5.30850011482835E+0001  3596
 5.31110011488199E+0001  3644
 5.31370011493564E+0001  3622
 5.31630011498928E+0001  3615
 5.31890011504292E+0001  3562
 5.32150011509657E+0001  3578
 5.32410011515021E+0001  3613
 5.32670011520386E+0001  3567
 5.32930011525750E+0001  3556
 5.33190011531115E+0001  3661
 5.33450011536479E+0001  3716
 5.33710011541843E+0001  3659
 5.33970011547208E+0001  3659
 5.34230011552572E+0001  3675
 5.34490011557937E+0001  3622
 5.34750011563301E+0001  3621
 5.35010011568666E+0001  3629
 5.35270011574030E+0001  3642
 5.35530011579394E+0001  3658
 5.35790011584759E+0001  3644
 5.36050011590123E+0001  3686
 5.36310011595488E+0001  3678
 5.36570011600852E+0001  3669
 5.36830011606216E+0001  3672
 5.37090011611581E+0001  3667
 5.37350011616945E+0001  3711
 5.37610011622310E+0001  3656
 5.37870011627674E+0001  3639
 5.38130011633039E+0001  3648
 5.38390011638403E+0001  3687
 5.38650011643767E+0001  3643
 5.38910011649132E+0001  3678
 5.39170011654496E+0001  3642
 5.39430011659861E+0001  3654
 5.39690011665225E+0001  3726
 5.39950011670589E+0001  3683
 5.40210011675954E+0001  3693
 5.40470011681318E+0001  3683
 5.40730011686683E+0001  3680
 5.40990011692047E+0001  3667
 5.41250011697412E+0001  3614
 5.41510011702776E+0001  3782
 5.41770011708140E+0001  3768
 5.42030011713505E+0001  3704
 5.42290011718869E+0001  3691
 5.42550011724234E+0001  3685
 5.42810011729598E+0001  3720
 5.43070011734962E+0001  3831
 5.43330011740327E+0001  3681
 5.43590011745691E+0001  3640
 5.43850011751056E+0001  3698
 5.44110011756420E+0001  3609
 5.44370011761785E+0001  3673
 5.44630011767149E+0001  3667
 5.44890011772513E+0001  3642
 5.45150011777878E+0001  3773
 5.45410011783242E+0001  3688
 5.45670011788607E+0001  3582
 5.45930011793971E+0001  3678
 5.46190011799335E+0001  3651
 5.46450011804700E+0001  3659
 5.46710011810064E+0001  3700
 5.46970011815429E+0001  3714
 5.47230011820793E+0001  3705
 5.47490011826158E+0001  3674
 5.47750011831522E+0001  3651
 5.48010011836886E+0001  3743
 5.48270011842251E+0001  3688
 5.48530011847615E+0001  3662
 5.48790011852980E+0001  3552
 5.49050011858344E+0001  3737
 5.49310011863708E+0001  3697
 5.49570011869073E+0001  3643
 5.49830011874437E+0001  3732
 5.50090011879802E+0001  3635
 5.50350011885166E+0001  3841
 5.50610011890531E+0001  3711
 5.50870011895895E+0001  3754
 5.51130011901259E+0001  3829
 5.51390011906624E+0001  3740
 5.51650011911988E+0001  3646
 5.51910011917353E+0001  3664
 5.52170011922717E+0001  3677
 5.52430011928082E+0001  3682
 5.52690011933446E+0001  3726
 5.52950011938810E+0001  3790
 5.53210011944175E+0001  3715
 5.53470011949539E+0001  3728
 5.53730011954904E+0001  3725
 5.53990011960268E+0001  3750
 5.54250011965632E+0001  3823
 5.54510011970997E+0001  3714
 5.54770011976361E+0001  3771
 5.55030011981726E+0001  3886
 5.55290011987090E+0001  3869
 5.55550011992455E+0001  3760
 5.55810011997819E+0001  3808
 5.56070012003183E+0001  3869
 5.56330012008548E+0001  3780
 5.56590012013912E+0001  3748
 5.56850012019277E+0001  3777
 5.57110012024641E+0001  3823
 5.57370012030005E+0001  3791
 5.57630012035370E+0001  3762
 5.57890012040734E+0001  3806
 5.58150012046099E+0001  3814
 5.58410012051463E+0001  3810
 5.58670012056828E+0001  3809
 5.58930012062192E+0001  3792
 5.59190012067556E+0001  3780
 5.59450012072921E+0001  3846
 5.59710012078285E+0001  3934
 5.59970012083650E+0001  3929
 5.60230012089014E+0001  3901
 5.60490012094378E+0001  3893
 5.60750012099743E+0001  3904
 5.61010012105107E+0001  3956
 5.61270012110472E+0001  3905
 5.61530012115836E+0001  3866
 5.61790012121201E+0001  3939
 5.62050012126565E+0001  3980
 5.62310012131929E+0001  3969
 5.62570012137294E+0001  3897
 5.62830012142658E+0001  3890
 5.63090012148023E+0001  3990
 5.63350012153387E+0001  3987
 5.63610012158751E+0001  3995
 5.63870012164116E+0001  4098
 5.64130012169480E+0001  3980
 5.64390012174845E+0001  3967
 5.64650012180209E+0001  3996
 5.64910012185574E+0001  3974
 5.65170012190938E+0001  3986
 5.65430012196302E+0001  4076
 5.65690012201667E+0001  4105
 5.65950012207031E+0001  4109
 5.66210012212396E+0001  4114
 5.66470012217760E+0001  4138
 5.66730012223125E+0001  4006
 5.66990012228489E+0001  4048
 5.67250012233853E+0001  4254
 5.67510012239218E+0001  4097
 5.67770012244582E+0001  4053
 5.68030012249947E+0001  3988
 5.68290012255311E+0001  4090
 5.68550012260675E+0001  4155
 5.68810012266040E+0001  4057
 5.69070012271404E+0001  4113
 5.69330012276769E+0001  4204
 5.69590012282133E+0001  4150
 5.69850012287498E+0001  4280
 5.70110012292862E+0001  4211
 5.70370012298226E+0001  4223
 5.70630012303591E+0001  4224
 5.70890012308955E+0001  4077
 5.71150012314320E+0001  4145
 5.71410012319684E+0001  4195
 5.71670012325048E+0001  4244
 5.71930012330413E+0001  4130
 5.72190012335777E+0001  4329
 5.72450012341142E+0001  4217
 5.72710012346506E+0001  4241
 5.72970012351871E+0001  4219
 5.73230012357235E+0001  4408
 5.73490012362599E+0001  4316
 5.73750012367964E+0001  4260
 5.74010012373328E+0001  4210
 5.74270012378693E+0001  4178
 5.74530012384057E+0001  4081
 5.74790012389421E+0001  4118
 5.75050012394786E+0001  4169
 5.75310012400150E+0001  4110
 5.75570012405515E+0001  4169
 5.75830012410879E+0001  4144
 5.76090012416244E+0001  4091
 5.76350012421608E+0001  4212
 5.76610012426972E+0001  4160
 5.76870012432337E+0001  4070
 5.77130012437701E+0001  4164
 5.77390012443066E+0001  4084
 5.77650012448430E+0001  4025
 5.77910012453794E+0001  4091
 5.78170012459159E+0001  4103
 5.78430012464523E+0001  4028
 5.78690012469888E+0001  4038
 5.78950012475252E+0001  4019
 5.79210012480617E+0001  4141
 5.79470012485981E+0001  4165
 5.79730012491345E+0001  4088
 5.79990012496710E+0001  3993
 5.80250012502074E+0001  4056
 5.80510012507439E+0001  4078
 5.80770012512803E+0001  4028
 5.81030012518167E+0001  4123
 5.81290012523532E+0001  4057
 5.81550012528896E+0001  3964
 5.81810012534261E+0001  4069
 5.82070012539625E+0001  4047
 5.82330012544990E+0001  3956
 5.82590012550354E+0001  3932
 5.82850012555718E+0001  3986
 5.83110012561083E+0001  3956
 5.83370012566447E+0001  3963
 5.83630012571812E+0001  3991
 5.83890012577176E+0001  3994
 5.84150012582541E+0001  3999
 5.84410012587905E+0001  3949
 5.84670012593269E+0001  3916
 5.84930012598634E+0001  3866
 5.85190012603998E+0001  3772
 5.85450012609363E+0001  3813
 5.85710012614727E+0001  3844
 5.85970012620091E+0001  3849
 5.86230012625456E+0001  3884
 5.86490012630820E+0001  3943
 5.86750012636185E+0001  3900
 5.87010012641549E+0001  3805
 5.87270012646914E+0001  3812
 5.87530012652278E+0001  3869
 5.87790012657642E+0001  3812
 5.88050012663007E+0001  3750
 5.88310012668371E+0001  3786
 5.88570012673736E+0001  3782
 5.88830012679100E+0001  3786
 5.89090012684464E+0001  3795
 5.89350012689829E+0001  3788
 5.89610012695193E+0001  3735
 5.89870012700558E+0001  3753
 5.90130012705922E+0001  3773
 5.90390012711287E+0001  3716
 5.90650012716651E+0001  3763
 5.90910012722015E+0001  3789
 5.91170012727380E+0001  3804
 5.91430012732744E+0001  3715
 5.91690012738109E+0001  3734
 5.91950012743473E+0001  3777
 5.92210012748837E+0001  3707
 5.92470012754202E+0001  3702
 5.92730012759566E+0001  3718
 5.92990012764931E+0001  3613
 5.93250012770295E+0001  3702
 5.93510012775660E+0001  3732
 5.93770012781024E+0001  3713
 5.94030012786388E+0001  3576
 5.94290012791753E+0001  3672
 5.94550012797117E+0001  3718
 5.94810012802482E+0001  3582
 5.95070012807846E+0001  3639
 5.95330012813210E+0001  3664
 5.95590012818575E+0001  3710
 5.95850012823939E+0001  3770
 5.96110012829304E+0001  3714
 5.96370012834668E+0001  3637
 5.96630012840033E+0001  3567
 5.96890012845397E+0001  3670
 5.97150012850761E+0001  3658
 5.97410012856126E+0001  3592
 5.97670012861490E+0001  3573
 5.97930012866855E+0001  3513
 5.98190012872219E+0001  3543
 5.98450012877584E+0001  3661
 5.98710012882948E+0001  3713
 5.98970012888312E+0001  3715
 5.99230012893677E+0001  3545
 5.99490012899041E+0001  3565
 5.99750012904406E+0001  3527
 6.00010012909770E+0001  3626
 6.00270012915134E+0001  3573
 6.00530012920499E+0001  3522
 6.00790012925863E+0001  3582
 6.01050012931228E+0001  3574
 6.01310012936592E+0001  3490
 6.01570012941957E+0001  3522
 6.01830012947321E+0001  3486
 6.02090012952685E+0001  3412
 6.02350012958050E+0001  3486
 6.02610012963414E+0001  3625
 6.02870012968779E+0001  3395
 6.03130012974143E+0001  3485
 6.03390012979507E+0001  3410
 6.03650012984872E+0001  3384
 6.03910012990236E+0001  3345
 6.04170012995601E+0001  3526
 6.04430013000965E+0001  3574
 6.04690013006330E+0001  3517
 6.04950013011694E+0001  3484
 6.05210013017058E+0001  3544
 6.05470013022423E+0001  3488
 6.05730013027787E+0001  3419
 6.05990013033152E+0001  3449
 6.06250013038516E+0001  3471
 6.06510013043880E+0001  3604
 6.06770013049245E+0001  3524
 6.07030013054609E+0001  3542
 6.07290013059974E+0001  3507
 6.07550013065338E+0001  3531
 6.07810013070703E+0001  3513
 6.08070013076067E+0001  3541
 6.08330013081431E+0001  3543
 6.08590013086796E+0001  3563
 6.08850013092160E+0001  3524
 6.09110013097525E+0001  3473
 6.09370013102889E+0001  3522
 6.09630013108253E+0001  3546
 6.09890013113618E+0001  3614
 6.10150013118982E+0001  3594
 6.10410013124347E+0001  3540
 6.10670013129711E+0001  3573
 6.10930013135076E+0001  3546
 6.11190013140440E+0001  3522
 6.11450013145804E+0001  3522
 6.11710013151169E+0001  3518
 6.11970013156533E+0001  3473
 6.12230013161898E+0001  3585
 6.12490013167262E+0001  3579
 6.12750013172626E+0001  3511
 6.13010013177991E+0001  3558
 6.13270013183355E+0001  3559
 6.13530013188720E+0001  3580
 6.13790013194084E+0001  3597
 6.14050013199449E+0001  3593
 6.14310013204813E+0001  3566
 6.14570013210177E+0001  3557
 6.14830013215542E+0001  3634
 6.15090013220906E+0001  3654
 6.15350013226271E+0001  3605
 6.15610013231635E+0001  3609
 6.15870013237000E+0001  3649
 6.16130013242364E+0001  3669
 6.16390013247728E+0001  3682
 6.16650013253093E+0001  3643
 6.16910013258457E+0001  3608
 6.17170013263822E+0001  3717
 6.17430013269186E+0001  3777
 6.17690013274550E+0001  3797
 6.17950013279915E+0001  3781
 6.18210013285279E+0001  3795
 6.18470013290644E+0001  3863
 6.18730013296008E+0001  3835
 6.18990013301373E+0001  3935
 6.19250013306737E+0001  3927
 6.19510013312101E+0001  4002
 6.19770013317466E+0001  4042
 6.20030013322830E+0001  4133
 6.20290013328195E+0001  4203
 6.20550013333559E+0001  4165
 6.20810013338923E+0001  4238
 6.21070013344288E+0001  4293
 6.21330013349652E+0001  4472
 6.21590013355017E+0001  4521
 6.21850013360381E+0001  4528
 6.22110013365746E+0001  4556
 6.22370013371110E+0001  4762
 6.22630013376474E+0001  4919
 6.22890013381839E+0001  4885
 6.23150013387203E+0001  4866
 6.23410013392568E+0001  5020
 6.23670013397932E+0001  5164
 6.23930013403296E+0001  5027
 6.24190013408661E+0001  5256
 6.24450013414025E+0001  5347
 6.24710013419390E+0001  5498
 6.24970013424754E+0001  5452
 6.25230013430119E+0001  5501
 6.25490013435483E+0001  5682
 6.25750013440847E+0001  5587
 6.26010013446212E+0001  5732
 6.26270013451576E+0001  5765
 6.26530013456941E+0001  5966
 6.26790013462305E+0001  6019
 6.27050013467669E+0001  6011
 6.27310013473034E+0001  5964
 6.27570013478398E+0001  5933
 6.27830013483763E+0001  6146
 6.28090013489127E+0001  6030
 6.28350013494492E+0001  6074
 6.28610013499856E+0001  6131
 6.28870013505220E+0001  5973
 6.29130013510585E+0001  6018
 6.29390013515949E+0001  5911
 6.29650013521314E+0001  5851
 6.29910013526678E+0001  5866
 6.30170013532043E+0001  5899
 6.30430013537407E+0001  5991
 6.30690013542771E+0001  5820
 6.30950013548136E+0001  5700
 6.31210013553500E+0001  5685
 6.31470013558865E+0001  5719
 6.31730013564229E+0001  5590
 6.31990013569593E+0001  5509
 6.32250013574958E+0001  5320
 6.32510013580322E+0001  5281
 6.32770013585687E+0001  5224
 6.33030013591051E+0001  5140
 6.33290013596416E+0001  5110
 6.33550013601780E+0001  4989
 6.33810013607144E+0001  4861
 6.34070013612509E+0001  4864
 6.34330013617873E+0001  4829
 6.34590013623238E+0001  4716
 6.34850013628602E+0001  4628
 6.35110013633966E+0001  4560
 6.35370013639331E+0001  4469
 6.35630013644695E+0001  4373
 6.35890013650060E+0001  4380
 6.36150013655424E+0001  4245
 6.36410013660789E+0001  4136
 6.36670013666153E+0001  4158
 6.36930013671517E+0001  4123
 6.37190013676882E+0001  4078
 6.37450013682246E+0001  3990
 6.37710013687611E+0001  3938
 6.37970013692975E+0001  3880
 6.38230013698339E+0001  3780
 6.38490013703704E+0001  3790
 6.38750013709068E+0001  3815
 6.39010013714433E+0001  3789
 6.39270013719797E+0001  3829
 6.39530013725162E+0001  3861
 6.39790013730526E+0001  3810
 6.40050013735890E+0001  3733
 6.40310013741255E+0001  3709
 6.40570013746619E+0001  3667
 6.40830013751984E+0001  3600
 6.41090013757348E+0001  3650
 6.41350013762712E+0001  3679
 6.41610013768077E+0001  3620
 6.41870013773441E+0001  3581
 6.42130013778806E+0001  3558
 6.42390013784170E+0001  3588
 6.42650013789535E+0001  3664
 6.42910013794899E+0001  3641
 6.43170013800263E+0001  3667
 6.43430013805628E+0001  3626
 6.43690013810992E+0001  3536
 6.43950013816357E+0001  3605
 6.44210013821721E+0001  3556
 6.44470013827085E+0001  3589
 6.44730013832450E+0001  3563
 6.44990013837814E+0001  3528
 6.45250013843179E+0001  3563
 6.45510013848543E+0001  3521
 6.45770013853908E+0001  3594
 6.46030013859272E+0001  3649
 6.46290013864636E+0001  3547
 6.46550013870001E+0001  3500
 6.46810013875365E+0001  3495
 6.47070013880730E+0001  3504
 6.47330013886094E+0001  3586
 6.47590013891459E+0001  3518
 6.47850013896823E+0001  3513
 6.48110013902187E+0001  3457
 6.48370013907552E+0001  3481
 6.48630013912916E+0001  3461
 6.48890013918281E+0001  3509
 6.49150013923645E+0001  3479
 6.49410013929009E+0001  3492
 6.49670013934374E+0001  3487
 6.49930013939738E+0001  3449
 6.50190013945103E+0001  3401
 6.50450013950467E+0001  3454
 6.50710013955832E+0001  3477
 6.50970013961196E+0001  3484
 6.51230013966560E+0001  3482
 6.51490013971925E+0001  3441
 6.51750013977289E+0001  3389
 6.52010013982654E+0001  3376
 6.52270013988018E+0001  3366
 6.52530013993382E+0001  3484
 6.52790013998747E+0001  3432
 6.53050014004111E+0001  3432
 6.53310014009476E+0001  3370
 6.53570014014840E+0001  3452
 6.53830014020205E+0001  3417
 6.54090014025569E+0001  3461
 6.54350014030933E+0001  3391
 6.54610014036298E+0001  3406
 6.54870014041662E+0001  3294
 6.55130014047027E+0001  3512
 6.55390014052391E+0001  3399
 6.55650014057755E+0001  3367
 6.55910014063120E+0001  3377
 6.56170014068484E+0001  3359
 6.56430014073849E+0001  3452
 6.56690014079213E+0001  3442
 6.56950014084578E+0001  3340
 6.57210014089942E+0001  3405
 6.57470014095306E+0001  3326
 6.57730014100671E+0001  3400
 6.57990014106035E+0001  3441
 6.58250014111400E+0001  3377
 6.58510014116764E+0001  3404
 6.58770014122128E+0001  3452
 6.59030014127493E+0001  3432
 6.59290014132857E+0001  3406
 6.59550014138222E+0001  3509
 6.59810014143586E+0001  3518
 6.60070014148951E+0001  3346
 6.60330014154315E+0001  3369
 6.60590014159679E+0001  3348
 6.60850014165044E+0001  3443
 6.61110014170408E+0001  3426
 6.61370014175773E+0001  3422
 6.61630014181137E+0001  3399
 6.61890014186502E+0001  3474
 6.62150014191866E+0001  3481
 6.62410014197230E+0001  3397
 6.62670014202595E+0001  3380
 6.62930014207959E+0001  3481
 6.63190014213324E+0001  3333
 6.63450014218688E+0001  3312
 6.63710014224052E+0001  3386
 6.63970014229417E+0001  3412
 6.64230014234781E+0001  3382
 6.64490014240146E+0001  3355
 6.64750014245510E+0001  3417
 6.65010014250875E+0001  3368
 6.65270014256239E+0001  3399
 6.65530014261603E+0001  3412
 6.65790014266968E+0001  3351
 6.66050014272332E+0001  3429
 6.66310014277697E+0001  3483
 6.66570014283061E+0001  3405
 6.66830014288425E+0001  3306
 6.67090014293790E+0001  3345
 6.67350014299154E+0001  3382
 6.67610014304519E+0001  3331
 6.67870014309883E+0001  3338
 6.68130014315248E+0001  3375
 6.68390014320612E+0001  3398
 6.68650014325976E+0001  3360
 6.68910014331341E+0001  3314
 6.69170014336705E+0001  3359
 6.69430014342070E+0001  3353
 6.69690014347434E+0001  3306
 6.69950014352798E+0001  3281
 6.70210014358163E+0001  3362
 6.70470014363527E+0001  3375
 6.70730014368892E+0001  3344
 6.70990014374256E+0001  3394
 6.71250014379621E+0001  3363
 6.71510014384985E+0001  3443
 6.71770014390349E+0001  3403
 6.72030014395714E+0001  3408
 6.72290014401078E+0001  3365
 6.72550014406443E+0001  3324
 6.72810014411807E+0001  3367
 6.73070014417171E+0001  3376
 6.73330014422536E+0001  3423
 6.73590014427900E+0001  3423
 6.73850014433265E+0001  3380
 6.74110014438629E+0001  3336
 6.74370014443994E+0001  3269
 6.74630014449358E+0001  3333
 6.74890014454722E+0001  3306
 6.75150014460087E+0001  3320
 6.75410014465451E+0001  3295
 6.75670014470816E+0001  3329
 6.75930014476180E+0001  3467
 6.76190014481544E+0001  3420
 6.76450014486909E+0001  3357
 6.76710014492273E+0001  3280
 6.76970014497638E+0001  3352
 6.77230014503002E+0001  3335
 6.77490014508367E+0001  3409
 6.77750014513731E+0001  3367
 6.78010014519095E+0001  3350
 6.78270014524460E+0001  3390
 6.78530014529824E+0001  3330
 6.78790014535189E+0001  3378
 6.79050014540553E+0001  3374
 6.79310014545918E+0001  3303
 6.79570014551282E+0001  3332
 6.79830014556646E+0001  3312
 6.80090014562011E+0001  3236
 6.80350014567375E+0001  3318
 6.80610014572740E+0001  3162
 6.80870014578104E+0001  3305
 6.81130014583468E+0001  3365
 6.81390014588833E+0001  3384
 6.81650014594197E+0001  3292
 6.81910014599562E+0001  3225
 6.82170014604926E+0001  3222
 6.82430014610291E+0001  3342
 6.82690014615655E+0001  3357
 6.82950014621019E+0001  3360
 6.83210014626384E+0001  3287
 6.83470014631748E+0001  3269
 6.83730014637113E+0001  3271
 6.83990014642477E+0001  3266
 6.84250014647841E+0001  3303
 6.84510014653206E+0001  3313
 6.84770014658570E+0001  3272
 6.85030014663935E+0001  3324
 6.85290014669299E+0001  3350
 6.85550014674664E+0001  3293
 6.85810014680028E+0001  3354
 6.86070014685392E+0001  3359
 6.86330014690757E+0001  3329
 6.86590014696121E+0001  3384
 6.86850014701486E+0001  3343
 6.87110014706850E+0001  3372
 6.87370014712214E+0001  3383
 6.87630014717579E+0001  3312
 6.87890014722943E+0001  3338
 6.88150014728308E+0001  3409
 6.88410014733672E+0001  3325
 6.88670014739037E+0001  3299
 6.88930014744401E+0001  3322
 6.89190014749765E+0001  3289
 6.89450014755130E+0001  3323
 6.89710014760494E+0001  3362
 6.89970014765859E+0001  3329
 6.90230014771223E+0001  3407
 6.90490014776587E+0001  3427
 6.90750014781952E+0001  3347
 6.91010014787316E+0001  3367
 6.91270014792681E+0001  3422
 6.91530014798045E+0001  3394
 6.91790014803410E+0001  3383
 6.92050014808774E+0001  3413
 6.92310014814138E+0001  3428
 6.92570014819503E+0001  3409
 6.92830014824867E+0001  3392
 6.93090014830232E+0001  3415
 6.93350014835596E+0001  3449
 6.93610014840961E+0001  3471
 6.93870014846325E+0001  3368
 6.94130014851689E+0001  3270
 6.94390014857054E+0001  3307
 6.94650014862418E+0001  3341
 6.94910014867783E+0001  3344
 6.95170014873147E+0001  3376
 6.95430014878511E+0001  3357
 6.95690014883876E+0001  3317
 6.95950014889240E+0001  3337
 6.96210014894605E+0001  3349
 6.96470014899969E+0001  3381
 6.96730014905334E+0001  3386
 6.96990014910698E+0001  3374
 6.97250014916062E+0001  3362
 6.97510014921427E+0001  3327
 6.97770014926791E+0001  3341
 6.98030014932156E+0001  3373
 6.98290014937520E+0001  3375
 6.98550014942884E+0001  3360
 6.98810014948249E+0001  3306
 6.99070014953613E+0001  3263
 6.99330014958978E+0001  3339
 6.99590014964342E+0001  3327
 6.99850014969707E+0001  3319
 7.00110014975071E+0001  3322
 7.00370014980435E+0001  3304
 7.00630014985800E+0001  3274
 7.00890014991164E+0001  3343
 7.01150014996529E+0001  3318
 7.01410015001893E+0001  3298
 7.01670015007257E+0001  3260
 7.01930015012622E+0001  3296
 7.02190015017986E+0001  3332
 7.02450015023351E+0001  3239
 7.02710015028715E+0001  3333
 7.02970015034080E+0001  3249
 7.03230015039444E+0001  3279
 7.03490015044808E+0001  3375
 7.03750015050173E+0001  3352
 7.04010015055537E+0001  3324
 7.04270015060902E+0001  3409
 7.04530015066266E+0001  3347
 7.04790015071630E+0001  3323
 7.05050015076995E+0001  3340
 7.05310015082359E+0001  3335
 7.05570015087724E+0001  3351
 7.05830015093088E+0001  3225
 7.06090015098453E+0001  3379
 7.06350015103817E+0001  3323
 7.06610015109181E+0001  3254
 7.06870015114546E+0001  3327
 7.07130015119910E+0001  3279
 7.07390015125275E+0001  3354
 7.07650015130639E+0001  3343
 7.07910015136003E+0001  3281
 7.08170015141368E+0001  3324
 7.08430015146732E+0001  3302
 7.08690015152097E+0001  3380
 7.08950015157461E+0001  3294
 7.09210015162826E+0001  3334
 7.09470015168190E+0001  3360
 7.09730015173554E+0001  3288
 7.09990015178919E+0001  3341
 7.10250015184283E+0001  3376
 7.10510015189648E+0001  3438
 7.10770015195012E+0001  3410
 7.11030015200377E+0001  3402
 7.11290015205741E+0001  3437
 7.11550015211105E+0001  3368
 7.11810015216470E+0001  3348
 7.12070015221834E+0001  3354
 7.12330015227199E+0001  3379
 7.12590015232563E+0001  3349
 7.12850015237927E+0001  3311
 7.13110015243292E+0001  3239
 7.13370015248656E+0001  3379
 7.13630015254021E+0001  3365
 7.13890015259385E+0001  3402
 7.14150015264750E+0001  3448
 7.14410015270114E+0001  3401
 7.14670015275478E+0001  3397
 7.14930015280843E+0001  3333
 7.15190015286207E+0001  3324
 7.15450015291572E+0001  3403
 7.15710015296936E+0001  3433
 7.15970015302300E+0001  3384
 7.16230015307665E+0001  3297
 7.16490015313029E+0001  3373
 7.16750015318394E+0001  3444
 7.17010015323758E+0001  3378
 7.17270015329123E+0001  3383
 7.17530015334487E+0001  3455
 7.17790015339851E+0001  3450
 7.18050015345216E+0001  3412
 7.18310015350580E+0001  3373
 7.18570015355945E+0001  3333
 7.18830015361309E+0001  3321
 7.19090015366673E+0001  3350
 7.19350015372038E+0001  3354
 7.19610015377402E+0001  3354
 7.19870015382767E+0001  3441
 7.20130015388131E+0001  3468
 7.20390015393496E+0001  3410
 7.20650015398860E+0001  3297
 7.20910015404224E+0001  3247
 7.21170015409589E+0001  3354
 7.21430015414953E+0001  3400
 7.21690015420318E+0001  3407
 7.21950015425682E+0001  3407
 7.22210015431046E+0001  3394
 7.22470015436411E+0001  3354
 7.22730015441775E+0001  3321
 7.22990015447140E+0001  3328
 7.23250015452504E+0001  3323
 7.23510015457869E+0001  3333
 7.23770015463233E+0001  3248
 7.24030015468597E+0001  3241
 7.24290015473962E+0001  3345
 7.24550015479326E+0001  3282
 7.24810015484691E+0001  3266
 7.25070015490055E+0001  3246
 7.25330015495420E+0001  3280
 7.25590015500784E+0001  3309
 7.25850015506148E+0001  3245
 7.26110015511513E+0001  3282
 7.26370015516877E+0001  3271
 7.26630015522242E+0001  3346
 7.26890015527606E+0001  3277
 7.27150015532970E+0001  3255
 7.27410015538335E+0001  3249
 7.27670015543699E+0001  3308
 7.27930015549064E+0001  3299
 7.28190015554428E+0001  3203
 7.28450015559793E+0001  3228
 7.28710015565157E+0001  3220
 7.28970015570521E+0001  3255
 7.29230015575886E+0001  3289
 7.29490015581250E+0001  3269
 7.29750015586615E+0001  3309
 7.30010015591979E+0001  3239
 7.30270015597343E+0001  3150
 7.30530015602708E+0001  3258
 7.30790015608072E+0001  3274
 7.31050015613437E+0001  3264
 7.31310015618801E+0001  3376
 7.31570015624166E+0001  3336
 7.31830015629530E+0001  3274
 7.32090015634894E+0001  3232
 7.32350015640259E+0001  3230
 7.32610015645623E+0001  3289
 7.32870015650988E+0001  3361
 7.33130015656352E+0001  3207
 7.33390015661716E+0001  3159
 7.33650015667081E+0001  3277
 7.33910015672445E+0001  3223
 7.34170015677810E+0001  3265
 7.34430015683174E+0001  3363
 7.34690015688539E+0001  3222
 7.34950015693903E+0001  3298
 7.35210015699267E+0001  3298
 7.35470015704632E+0001  3393
 7.35730015709996E+0001  3265
 7.35990015715361E+0001  3248
 7.36250015720725E+0001  3265
 7.36510015726089E+0001  3276
 7.36770015731454E+0001  3322
 7.37030015736818E+0001  3321
 7.37290015742183E+0001  3241
 7.37550015747547E+0001  3154
 7.37810015752912E+0001  3173
 7.38070015758276E+0001  3187
 7.38330015763640E+0001  3156
 7.38590015769005E+0001  3236
 7.38850015774369E+0001  3319
 7.39110015779734E+0001  3303
 7.39370015785098E+0001  3194
 7.39630015790462E+0001  3108
 7.39890015795827E+0001  3155
 7.40150015801191E+0001  3246
 7.40410015806556E+0001  3260
 7.40670015811920E+0001  3252
 7.40930015817285E+0001  3181
 7.41190015822649E+0001  3193
 7.41450015828013E+0001  3162
 7.41710015833378E+0001  3111
 7.41970015838742E+0001  3138
 7.42230015844107E+0001  3161
 7.42490015849471E+0001  3129
 7.42750015854836E+0001  3148
 7.43010015860200E+0001  3191
 7.43270015865564E+0001  3211
 7.43530015870929E+0001  3215
 7.43790015876293E+0001  3240
 7.44050015881658E+0001  3246
 7.44310015887022E+0001  3197
 7.44570015892386E+0001  3180
 7.44830015897751E+0001  3208
 7.45090015903115E+0001  3172
 7.45350015908480E+0001  3127
 7.45610015913844E+0001  3139
 7.45870015919209E+0001  3099
 7.46130015924573E+0001  3091
 7.46390015929937E+0001  3167
 7.46650015935302E+0001  3161
 7.46910015940666E+0001  3111
 7.47170015946031E+0001  3083
 7.47430015951395E+0001  3124
 7.47690015956759E+0001  3185
 7.47950015962124E+0001  3149
 7.48210015967488E+0001  3206
 7.48470015972853E+0001  3150
 7.48730015978217E+0001  3140
 7.48990015983582E+0001  3154
 7.49250015988946E+0001  3166
 7.49510015994310E+0001  3177
 7.49770015999675E+0001  3126
 7.50030016005039E+0001  3139
 7.50290016010404E+0001  3124
 7.50550016015768E+0001  3156
 7.50810016021132E+0001  3122
 7.51070016026497E+0001  3180
 7.51330016031861E+0001  3212
 7.51590016037226E+0001  3028
 7.51850016042590E+0001  3174
 7.52110016047955E+0001  3230
 7.52370016053319E+0001  3197
 7.52630016058683E+0001  3136
 7.52890016064048E+0001  3191
 7.53150016069412E+0001  3086
 7.53410016074777E+0001  3106
 7.53670016080141E+0001  3087
 7.53930016085505E+0001  3177
 7.54190016090870E+0001  3135
 7.54450016096234E+0001  3152
 7.54710016101599E+0001  3083
 7.54970016106963E+0001  3064
 7.55230016112328E+0001  3077
 7.55490016117692E+0001  3016
 7.55750016123056E+0001  3002
 7.56010016128421E+0001  3026
 7.56270016133785E+0001  3048
 7.56530016139150E+0001  3032
 7.56790016144514E+0001  3117
 7.57050016149879E+0001  3069
 7.57310016155243E+0001  3136
 7.57570016160607E+0001  3014
 7.57830016165972E+0001  3070
 7.58090016171336E+0001  3123
 7.58350016176701E+0001  3055
 7.58610016182065E+0001  3013
 7.58870016187429E+0001  3046
 7.59130016192794E+0001  3073
 7.59390016198158E+0001  3013
 7.59650016203523E+0001  3016
 7.59910016208887E+0001  3014
 7.60170016214252E+0001  3047
 7.60430016219616E+0001  3109
 7.60690016224980E+0001  2994
 7.60950016230345E+0001  3045
 7.61210016235709E+0001  3011
 7.61470016241074E+0001  3082
 7.61730016246438E+0001  3075
 7.61990016251802E+0001  3080
 7.62250016257167E+0001  3115
 7.62510016262531E+0001  2988
 7.62770016267896E+0001  2973
 7.63030016273260E+0001  2960
 7.63290016278625E+0001  3014
 7.63550016283989E+0001  2922
 7.63810016289353E+0001  2960
 7.64070016294718E+0001  2961
 7.64330016300082E+0001  2938
 7.64590016305447E+0001  3036
 7.64850016310811E+0001  2948
 7.65110016316175E+0001  2944
 7.65370016321540E+0001  3099
 7.65630016326904E+0001  2998
 7.65890016332269E+0001  2928
 7.66150016337633E+0001  2933
 7.66410016342998E+0001  2973
 7.66670016348362E+0001  2976
 7.66930016353726E+0001  2953
 7.67190016359091E+0001  2907
 7.67450016364455E+0001  2936
 7.67710016369820E+0001  2929
 7.67970016375184E+0001  2896
 7.68230016380548E+0001  2903
 7.68490016385913E+0001  2927
 7.68750016391277E+0001  2919
 7.69010016396642E+0001  2900
 7.69270016402006E+0001  2902
 7.69530016407371E+0001  2913
 7.69790016412735E+0001  2870
 7.70050016418099E+0001  2850
 7.70310016423464E+0001  2860
 7.70570016428828E+0001  2864
 7.70830016434193E+0001  2919
 7.71090016439557E+0001  2885
 7.71350016444921E+0001  2850
 7.71610016450286E+0001  2879
 7.71870016455650E+0001  2881
 7.72130016461015E+0001  2854
 7.72390016466379E+0001  2852
 7.72650016471744E+0001  2890
 7.72910016477108E+0001  2851
 7.73170016482472E+0001  2844
 7.73430016487837E+0001  2799
 7.73690016493201E+0001  2827
 7.73950016498566E+0001  2861
 7.74210016503930E+0001  2884
 7.74470016509295E+0001  2839
 7.74730016514659E+0001  2855
 7.74990016520023E+0001  2851
 7.75250016525388E+0001  2819
 7.75510016530752E+0001  2815
 7.75770016536117E+0001  2878
 7.76030016541481E+0001  2864
 7.76290016546845E+0001  2897
 7.76550016552210E+0001  2920
 7.76810016557574E+0001  2823
 7.77070016562939E+0001  2856
 7.77330016568303E+0001  2887
 7.77590016573668E+0001  2825
 7.77850016579032E+0001  2833
 7.78110016584396E+0001  2877
 7.78370016589761E+0001  2854
 7.78630016595125E+0001  2847
 7.78890016600490E+0001  2814
 7.79150016605854E+0001  2790
 7.79410016611218E+0001  2772
 7.79670016616583E+0001  2853
 7.79930016621947E+0001  2798
 7.80190016627312E+0001  2794
 7.80450016632676E+0001  2739
 7.80710016638041E+0001  2818
 7.80970016643405E+0001  2729
 7.81230016648769E+0001  2778
 7.81490016654134E+0001  2816
 7.81750016659498E+0001  2720
 7.82010016664863E+0001  2818
 7.82270016670227E+0001  2756
 7.82530016675591E+0001  2791
 7.82790016680956E+0001  2803
 7.83050016686320E+0001  2826
 7.83310016691685E+0001  2808
 7.83570016697049E+0001  2761
 7.83830016702414E+0001  2801
 7.84090016707778E+0001  2796
 7.84350016713142E+0001  2804
 7.84610016718507E+0001  2810
 7.84870016723871E+0001  2799
 7.85130016729236E+0001  2754
 7.85390016734600E+0001  2762
 7.85650016739964E+0001  2779
 7.85910016745329E+0001  2886
 7.86170016750693E+0001  2842
 7.86430016756058E+0001  2932
 7.86690016761422E+0001  2991
 7.86950016766787E+0001  2912
 7.87210016772151E+0001  2814
 7.87470016777515E+0001  2872
 7.87730016782880E+0001  2892
 7.87990016788244E+0001  2806
 7.88250016793609E+0001  2866
 7.88510016798973E+0001  2904
 7.88770016804338E+0001  2887
 7.89030016809702E+0001  2866
 7.89290016815066E+0001  2815
 7.89550016820431E+0001  2867
 7.89810016825795E+0001  2839

