#Data reduced with Dominiques SARed v. 1.0
#wavelength: 5.1386
#q/A-1 	 Icorr/a.u. 	 sIcorr /a.u. 	Ispec/a.u. 	 sIspec/a.u. 	 Ibg/a.u. 	 sIbg/a.u. 	 2th/°
0.0	0.001414593615245816	0.0004647299468985322	0.0028623399594314373	0.00013490977757255003	0.0014477463441856214	0.00044471707349688926	0.0
0.00034145415721603483	0.006393053864007072	0.0012020263948865947	0.011078866215601377	0.0002653575050849607	0.004685812351594305	0.0011723706105575783	0.016000000000000014
0.000682908307775245	0.010564312874684352	0.0015871460999493472	0.01696764603079523	0.0003281966963098269	0.0064033331561108775	0.0015528424489032165	0.03200000000000003
0.0010243624450208065	0.007374712773263337	0.0014202115403371468	0.013437875509505334	0.00029175333438092893	0.006063162736241997	0.0013899211528660253	0.04800000000000004
0.0013658165622958943	0.003118719985646756	0.0011071712952393396	0.007959605120797549	0.00022403709242923756	0.004840885135150793	0.0010842673370612113	0.06400000000000006
0.0017072706529436851	0.004544141430207937	0.0007567974250843817	0.007756939177074153	0.00022055446586670218	0.0032127977468662163	0.0007239461790772876	0.08000000000000007
0.002048724710307356	0.009788600692656406	0.0006398664836813705	0.012017844591894356	0.00027402121744059325	0.0022292438992379503	0.0005782226987339191	0.09600000000000009
0.002390178727730083	0.01751028971566427	0.0006839209138224089	0.019565219082823125	0.00034917190409673157	0.0020549293671588554	0.0005880704020380059	0.1120000000000001
0.002731632698555046	0.02481529346348326	0.0008053243344886598	0.02731380340437761	0.0004120198769194949	0.0024985099408943497	0.0006919442930921875	0.1280000000000001
0.003073086616125423	0.030113371791909045	0.0009589849432808758	0.03328173508608029	0.00045422144118079024	0.0031683632941712416	0.0008445916195482112	0.14400000000000013
0.0034145404737843947	0.03428747475522551	0.0011124429363628182	0.038104204762190425	0.0004855056968837441	0.003816730006964912	0.001000906341750795	0.16000000000000014
0.0037559942648751404	0.037735355666105114	0.0012122479562429597	0.042117298150728864	0.0005100486980272564	0.004381942484623747	0.0010997251625092213	0.17600000000000016
0.004097447982740846	0.041224541677553586	0.0013118120553022301	0.04611990418322	0.0005333956285901431	0.004895362505666412	0.0011984740180067265	0.19200000000000017
0.0044389016207246924	0.044270764003146675	0.0014249932540886918	0.04971989777216866	0.0005534013343867855	0.0054491337690219886	0.0013131461218376286	0.20800000000000018
0.004780355172169867	0.04696101530259043	0.0015709118093422444	0.053149016841415105	0.000571601784667184	0.0061880015388246805	0.0014632277035705053	0.2240000000000002
0.005121808630419555	0.05035038552750367	0.0016682849377619717	0.05719220703704178	0.0005922114710929375	0.006841821509538108	0.0015596346389681799	0.2400000000000002
0.005463261988816949	0.05304815665021891	0.0017529025094165666	0.060440035967581504	0.0006080194524503035	0.00739187931736259	0.001644074071616279	0.2560000000000002
0.005804715240705238	0.056307097214983795	0.0018751261662903426	0.06430413689940655	0.0006264522403239457	0.00799703968442275	0.0017673866951235734	0.27200000000000024
0.006146168379427613	0.06008738171843536	0.001980666101679863	0.06858774294613869	0.0006462665349266344	0.008500361227703325	0.0018722654117879834	0.28800000000000026
0.006487621398327273	0.06280270149484696	0.002122144540516392	0.07185690486481194	0.0006607230423987695	0.009054203369964979	0.0020166661875696836	0.30400000000000027
0.006829074290747414	0.06573768766205373	0.00220662118251383	0.07529707392631069	0.0006754860432988649	0.00955938626425696	0.002100689326965598	0.3200000000000003
0.007170527050031234	0.06914081426412615	0.0022542274390138133	0.07908563930802504	0.0006913332284143971	0.009944825043898892	0.002145600082516055	0.3360000000000003
0.007511979669521937	0.07217796571692685	0.0023552453115221776	0.08266435674947713	0.0007057763456798647	0.010486391032550274	0.002247011399020035	0.3520000000000003
0.00785343214256273	0.07459136186664805	0.0024062424073168667	0.08544514220447486	0.0007164145039592699	0.010853780337826798	0.002297118364666232	0.3680000000000003
0.008194884462496822	0.07597638544921476	0.002466997803194876	0.08716960502859976	0.0007224927592287129	0.011193219579384999	0.0023588307217412667	0.38400000000000034
0.00853633662266742	0.075190578926668	0.0025142144520782176	0.08682719179159167	0.0007200204318606012	0.011636612864923665	0.002408909481226359	0.40000000000000036
0.008877788616417743	0.07202363678747935	0.002576094967998332	0.08415550051774118	0.0007079629241559019	0.012131863730261833	0.00247690407205587	0.41600000000000037
0.009219240437091004	0.06893830517046728	0.0027760206336595043	0.08193039944029176	0.000697768265497365	0.012992094269824485	0.002686895979781896	0.4320000000000004
0.009560692078030425	0.07020213267941755	0.0029810885833722158	0.08403899965600146	0.0007058952715106198	0.01383686697658392	0.002896308168612434	0.4480000000000004
0.009902143532579236	0.07658939553823842	0.0032062711562102207	0.09131090103398247	0.0007350558695548412	0.014721505495744053	0.0031208760942688196	0.4640000000000004
0.010243594794080657	0.08690172017373225	0.0034085226859607914	0.10258407679143808	0.0007784063105641637	0.01568235661770583	0.0033184500171591037	0.4800000000000004
0.010585045855877929	0.09656294597567368	0.0036131882213355677	0.11346360256728212	0.0008179030125692902	0.016900656591608446	0.003519398213449021	0.49600000000000044
0.010926496711314277	0.10165140761539586	0.003931750937191869	0.12034067065234931	0.0008413039243921383	0.018689263036953452	0.0038406865452561374	0.5120000000000005
0.011267947353732948	0.10327664262772515	0.004053123992324264	0.12286608093947221	0.0008487052216293229	0.01958943831174706	0.003963270561535473	0.5280000000000005
0.011609397776477185	0.10228569393674194	0.003802232996013302	0.12096335600229435	0.0008405891369127031	0.018677662065552405	0.0037081512454155167	0.5440000000000005
0.011950847972890236	0.09707471689707295	0.0032713190012828635	0.11346545988711412	0.000812602141256011	0.016390742990041174	0.0031687861663704064	0.5600000000000005
0.01229229793631535	0.08429790562885936	0.0027794355085516112	0.09818191234575689	0.0007546346754676549	0.013884006716897535	0.00267503051436416	0.5760000000000005
0.012633747660095791	0.06588923095415579	0.00250773158938145	0.07796879508347282	0.0006715922625241952	0.01207956412931703	0.002416129457893191	0.5920000000000005
0.012975197137574815	0.04739228919383008	0.0023058493210676794	0.058277023194593464	0.000580071217028308	0.01088473400076338	0.00223169408177814	0.6080000000000005
0.01331664636209569	0.03425524451296234	0.002110542659133352	0.04441971065956431	0.0005060088869042618	0.010164466146601964	0.002048986413423864	0.6240000000000006
0.013658095327001692	0.029105502875241444	0.002015035892967045	0.039010265519457646	0.000473711401235345	0.009904762644216202	0.0019585625234556955	0.6400000000000006
0.013999544025636088	0.0312808352097947	0.0021585322079393007	0.04161571813702285	0.0004886805521251913	0.010334882927228142	0.002102487243881858	0.6560000000000006
0.01434099245134217	0.04170495592676364	0.0025139461377901772	0.05325953645929554	0.0005520507255736883	0.011554580532531904	0.002452583368634737	0.6720000000000006
0.01468244059746322	0.06144900297121509	0.0028813986416033346	0.07466121994873694	0.0006527797677409523	0.013212216977521849	0.002806481196562986	0.6880000000000006
0.015023888457342531	0.08585691497959681	0.0032351623703850553	0.10080829953345712	0.0007577280254771117	0.014951384553860308	0.003145174685476469	0.7040000000000006
0.015365336024323401	0.10452755471051953	0.0033125694967671288	0.1204381781135059	0.0008274562218276904	0.015910623402986376	0.0032075587090294503	0.7200000000000006
0.015706783291749137	0.10705458837656856	0.0030693735995141105	0.12229007029523861	0.0008331110443312892	0.015235481918670059	0.002954146286358791	0.7360000000000007
0.016048230252963046	0.08990991326174974	0.002778966543333989	0.10339299436445984	0.0007654246839747478	0.013483081102710095	0.002671475266988601	0.7520000000000007
0.016389676901308443	0.06199667246224525	0.0024402686952160637	0.07311966387707342	0.0006431349120050047	0.011122991414828165	0.0023539942204287216	0.7680000000000007
0.01673112323012865	0.03706800426251913	0.0019434809305571513	0.045450924812503284	0.0005065553400068827	0.008382920549984147	0.0018763048299649506	0.7840000000000007
0.017072569232766996	0.020424730490571072	0.0013641171281177666	0.026326689976099934	0.0003850301249833973	0.005901959485528861	0.0013086509626632813	0.8000000000000007
0.017414014902566815	0.010871495953943646	0.0009382575414971948	0.01498581929178042	0.0002900644265823632	0.004114323337836774	0.000892294706141309	0.8160000000000007
0.017755460232871452	0.006564309037471089	0.0006369600566610139	0.009500092555062983	0.00023060924465086245	0.0029357835175918947	0.000593748675841185	0.8320000000000007
0.018096905217024246	0.00456353126865644	0.0004619648610324872	0.0068007071844273705	0.00019487803564734198	0.0022371759157709305	0.0004188485216053633	0.8480000000000008
0.01843834984836856	0.003550633471183288	0.00038296744790352526	0.005441875158075419	0.00017415836684149525	0.001891241686892131	0.0003410761343349055	0.8640000000000008
0.018779794120247748	0.0029323099291991266	0.0003609261314054461	0.004700694426056003	0.00016169053054634238	0.0017683844968568766	0.0003226822658017383	0.8800000000000008
0.01912123802600518	0.0032161717249255496	0.0004183629506002136	0.005161684301930649	0.00016916528588305427	0.0019455125770050992	0.00038263646518205927	0.8960000000000008
0.019462681558984233	0.00560766465605134	0.0005059245799714252	0.007790313927776753	0.0002074835440068647	0.002182649271725413	0.0004614219972927325	0.9120000000000008
0.019804124712528293	0.010292383785039654	0.0005568206366032806	0.012592516114799685	0.0002634809653963718	0.0023001323297600325	0.0004905374626071678	0.9280000000000008
0.020145567479980742	0.01640376864981129	0.0006207060419799632	0.01881147133712955	0.0003217787494551983	0.00240770268731826	0.0005307866115017225	0.9440000000000008
0.02048700985468498	0.021433638478087887	0.0006196056894100433	0.02379184339708073	0.000361620573917368	0.002358204918992842	0.0005031319616849723	0.9600000000000009
0.02082845182998442	0.021534747201526597	0.0005804970206143735	0.0237395159421308	0.0003609447427927372	0.0022047687406042014	0.00045463796980943987	0.9760000000000009
0.02116989339922247	0.017056565147851675	0.0005437871820906186	0.01906755387782167	0.00032318662446296207	0.0020109887299699946	0.0004373270002804445	0.9920000000000009
0.021511334555742535	0.011392057456772268	0.0004971935613351285	0.013135706588422405	0.0002679314015092386	0.0017436491316501369	0.0004188247861796187	1.008000000000001
0.02185277529288807	0.006720960968365894	0.0004051249576482202	0.008164021796973136	0.00021092954343260924	0.0014430608286072411	0.00034588286892643763	1.024000000000001
0.022194215604002494	0.004089891424816641	0.0003013034173825619	0.00524558699132884	0.00016880700700933177	0.0011556955665121993	0.0002495755270673824	1.040000000000001
0.02253565548242926	0.0029292844568564454	0.0002453366585732652	0.003921691357364072	0.00014574338876737817	0.0009924069005076267	0.000197354859759003	1.056000000000001
0.022877094921511826	0.0024251730302245356	0.00022306470537429107	0.00335029208882259	0.0001345407241597141	0.000925119058598054	0.0001779231753490787	1.072000000000001
0.023218533914593643	0.002159144305865894	0.00021265076200464278	0.003042229839424036	0.000128056302169172	0.0008830855335581421	0.00016977022723644136	1.088000000000001
0.023559972455018188	0.002371439600893434	0.00021608206981773223	0.003253459791392202	0.0001322826852407878	0.0008820201904987681	0.00017085886597482133	1.104000000000001
0.02390141053612894	0.002879387930954165	0.0002539851684927774	0.0039061714878081814	0.00014477736558020894	0.0010267835568540163	0.00020868152824329964	1.120000000000001
0.024242848151269387	0.003904168606691326	0.0003365375510574331	0.005232920259529606	0.0001673751304358779	0.0013287516528382804	0.0002919641912689076	1.136000000000001
0.024584285293783033	0.006512224971539976	0.0004861965850932318	0.008357512379216994	0.0002113106044918209	0.0018452874076770184	0.00043787549347459653	1.152000000000001
0.024925721957013376	0.011519132241029722	0.000660662626938446	0.013991915527640383	0.00027315681605125065	0.002472783286610661	0.0006015483858160968	1.168000000000001
0.02526715813430394	0.018824342271465157	0.0007975287273934967	0.021712316665294776	0.000339932175376896	0.0028879743938296206	0.000721455603042503	1.184000000000001
0.025608593818998247	0.026879430088805584	0.0007999053886088807	0.029779157751814386	0.0003976178061298934	0.0028997276630088015	0.0006940811991215256	1.200000000000001
0.025950029004439837	0.03160955394092342	0.0007220748420384489	0.03425730656762631	0.00042593451707157115	0.0026477526267028855	0.0005830710631405562	1.216000000000001
0.026291463683972244	0.03012270556610184	0.0006908438059528666	0.032499943598824715	0.0004143389570963177	0.002377238032722875	0.0005528005000502241	1.232000000000001
0.026632897850939034	0.023811299294611392	0.0006783154535866784	0.02594602110732746	0.0003697528295870999	0.0021347218127160655	0.000568678028049998	1.248000000000001
0.02697433149868377	0.016256503230896724	0.0006076777781455552	0.018069469856820633	0.00030826007812219874	0.0018129666259239076	0.0005236869353803039	1.2640000000000011
0.027315764620550024	0.010278256092080842	0.000467708454103227	0.01166968435474856	0.0002475507040968679	0.0013914282626677178	0.0003968247055574732	1.2800000000000011
0.02765719720988138	0.00638189541556349	0.00033661110295894357	0.007373765623169359	0.00019666616295936209	0.0009918702076058684	0.00027318392152921104	1.2960000000000012
0.027998629260021446	0.004194148475687011	0.0002488763754853484	0.004915810532640778	0.0001604514324876502	0.0007216620569537676	0.00019024927880910655	1.3120000000000012
0.02834006076431381	0.00304405298153439	0.00019415816152189145	0.0035829660691208357	0.0001368172441028976	0.0005389130875864457	0.00013776223503431199	1.3280000000000012
0.028681491716102115	0.0024169154333295107	0.00015303748558120913	0.0028078578390463944	0.00012096596560925025	0.0003909424057168839	9.374277122658833e-05	1.3440000000000012
0.02902292210872996	0.0018964549768526334	0.0001277762429608644	0.002212149420920612	0.00010723781254158896	0.00031569444406797834	6.947531811002291e-05	1.3600000000000012
0.029364351935540996	0.0014057223885982164	0.0001132159261952524	0.0016844422685324306	9.345312622057547e-05	0.00027871987993421417	6.390899110336534e-05	1.3760000000000012
0.02970578118987888	0.0011493011596166202	0.00010179093626365191	0.0013859454807503087	8.464972384471315e-05	0.00023664432113368856	5.653157488027948e-05	1.3920000000000012
0.03004720986508726	0.0009779022950443467	9.048053074500379e-05	0.0011907651834753188	7.835225526156302e-05	0.00021286288843097215	4.5250972799758074e-05	1.4080000000000013
0.030388637954509818	0.0007808425333705956	8.408748012952878e-05	0.0009983748315642912	7.164406952149004e-05	0.00021753229819369558	4.402080890821747e-05	1.4240000000000013
0.03073006545149023	0.0008281994154149316	8.187670429077816e-05	0.0010177029710161983	7.223208695561988e-05	0.00018950355560126675	3.855282505284534e-05	1.4400000000000013
0.0310714923493722	0.0010210523630367462	8.68082346870655e-05	0.0012000684952557868	7.834279196984987e-05	0.00017901613221904045	3.739086192980138e-05	1.4560000000000013
0.03141291864149943	0.001080196019011524	9.058520330891438e-05	0.0012757565172515683	8.070560834321676e-05	0.00019556049824004425	4.113737765668412e-05	1.4720000000000013
0.03175434432121564	0.0011437577447196844	9.097022880264346e-05	0.0013288206103987546	8.230930397122416e-05	0.00018506286567907025	3.873965678962485e-05	1.4880000000000013
0.03209576938186455	0.0010947867411351996	8.945432440363402e-05	0.0012703669583324743	8.043290665944368e-05	0.00017558021719727484	3.914873792121291e-05	1.5040000000000013
0.03243719381678992	0.0009259393124859806	8.209862602244719e-05	0.0010879141765730333	7.43930176548259e-05	0.00016197486408705257	3.472554274568513e-05	1.5200000000000014
0.032778617619335496	0.0008232506731846017	7.737512586737744e-05	0.000979239373206836	7.052165884251491e-05	0.0001559887000222342	3.1837175394378824e-05	1.5360000000000014
0.03312004078284504	0.0006936073997940578	7.423191651025431e-05	0.000859302495815451	6.5975774450532e-05	0.0001656950960213932	3.4023148214677276e-05	1.5520000000000014
0.033461463300662346	0.0005982813494891882	7.385594722999071e-05	0.0007841452002177803	6.291124925170766e-05	0.00018586385072859204	3.8689477365669924e-05	1.5680000000000014
0.03380288516613119	0.0006107588927350188	7.566072893873796e-05	0.0008067720812569587	6.370023473734526e-05	0.0001960131885219399	4.082678040145087e-05	1.5840000000000014
0.03414430637259539	0.0006801104335641883	7.76056098921232e-05	0.0008777115901832809	6.63295780929721e-05	0.0001976011566190926	4.0286694537238045e-05	1.6000000000000014
0.03448572691339876	0.0007399777903756969	8.439289940093654e-05	0.0009727008248770405	6.973591638276265e-05	0.00023272303450134362	4.752960588467919e-05	1.6160000000000014
0.03482714678188512	0.0008853325837643476	9.496410079806299e-05	0.0011583766853833872	7.605172135224757e-05	0.00027304410161903964	5.687104816815635e-05	1.6320000000000014
0.035168565971398336	0.001136681064215868	0.00010810867562831979	0.0014548509466246317	8.517524703898765e-05	0.00031816988240876377	6.657824748336869e-05	1.6480000000000015
0.035509984475282245	0.0014265526156173236	0.00013183913421179266	0.0018444129735509264	9.582302804420974e-05	0.00041786035793360283	9.055111598513668e-05	1.6640000000000015
0.035851402286880725	0.0019799179456843436	0.00017405271512522792	0.0025341843367756075	0.00011220220569938435	0.0005542663910912638	0.00013306018442290235	1.6800000000000015
0.03619281939953766	0.0032188240554491595	0.00021472674294700428	0.0038790558820952724	0.00013869094628811963	0.0006602318266461127	0.00016392801943028158	1.6960000000000015
0.036534235806596954	0.0049886732583185635	0.00025132401737045076	0.005762746239662751	0.00016890898783465956	0.0007740729813441872	0.00018610082088989685	1.7120000000000015
0.036875651501402505	0.0068423173167266255	0.0002755485179402804	0.007681997826414151	0.00019485451393932228	0.0008396805096875252	0.0001948299364485743	1.7280000000000015
0.03721706647729824	0.008231986278977763	0.0002778729720756931	0.00902897428335251	0.0002110753540181642	0.000796988004374748	0.00018072239356616975	1.7440000000000015
0.037558480727628116	0.008473880203114821	0.0002844691641907979	0.009251952545018788	0.00021347484079594075	0.0007780723419039666	0.00018801914190464463	1.7600000000000016
0.03789989424573607	0.007739031462094087	0.00028400252600984337	0.008487066482266716	0.00020427469541806228	0.0007480350201726288	0.00019730505211937592	1.7760000000000016
0.038241307024966066	0.006514011207854914	0.0002467337888790334	0.007122297937982273	0.0001869742173737291	0.000608286730127359	0.00016099131843700434	1.7920000000000016
0.038582719058662104	0.005006499639688267	0.0002065531834989769	0.0054811347597378945	0.00016389114344687799	0.00047463512004962795	0.00012571360591931524	1.8080000000000016
0.03892413034016816	0.0036385826362037776	0.00017739089539023405	0.004048872978564819	0.00014078252050636936	0.0004102903423610413	0.00010792502808534563	1.8240000000000016
0.03926554086282827	0.0025721885535155043	0.00015014388954394118	0.0029188499045823407	0.00011944477225145472	0.0003466613510668366	9.097325952817851e-05	1.8400000000000016
0.03960695061998643	0.001792667318044039	0.00012741673903930877	0.0020613415885150947	0.00010026614916219437	0.0002686742704710557	7.862394495060588e-05	1.8560000000000016
