#Data reduced with Dominiques SARed v. 1.0
#wavelength: 5.1386
#q/A-1 	 Icorr/a.u. 	 sIcorr /a.u. 	Ispec/a.u. 	 sIspec/a.u. 	 Ibg/a.u. 	 sIbg/a.u. 	 2th/°
0.0	0.00223294323033	0.000162813331812	0.00258089441963	0.000126242116323	0.000347951189297	0.000102815898974	0.0
0.000384135926537	0.00750535385114	0.000377520679683	0.00866858707882	0.000231234610772	0.00116323322768	0.000298416518258	0.018
0.000768271843595	0.0101398301494	0.000490836986729	0.0117755738231	0.000269186761015	0.00163574367371	0.000410438101588	0.036
0.0011524077417	0.00817669042031	0.000413750168743	0.00953449589996	0.000241695769381	0.00135780547965	0.000335815957331	0.054
0.00153654361136	0.00743621594061	0.000305957395812	0.0082803727082	0.000224264917021	0.000844156767585	0.00020812298058	0.072
0.00192067944312	0.0122053332203	0.000300783588468	0.0126939133479	0.000276458929771	0.000488580127606	0.000118495684484	0.09
0.00230481522748	0.022114045061	0.000373360942927	0.0224246452806	0.000366578016418	0.000310600219529	7.0844559302e-05	0.108
0.00268895095498	0.0339627987788	0.000454920316675	0.0342018026475	0.000451699830267	0.000239003868718	5.40347837948e-05	0.126
0.00307308661613	0.0449978017373	0.000521414280419	0.0452625036824	0.00051821060221	0.000264701945112	5.77115550117e-05	0.144
0.00345722220145	0.0539725574306	0.000569116986942	0.0542821507936	0.00056570722622	0.000309593363011	6.22051366647e-05	0.162
0.00384135770147	0.0606308385297	0.000600685158657	0.0609418980213	0.000597427379523	0.000311059491641	6.24754834078e-05	0.18
0.0042254931067	0.0665255187477	0.000627199986786	0.0668394066873	0.00062353844735	0.000313887939591	6.76729495519e-05	0.198
0.00460962840768	0.0728844759429	0.000654043616231	0.0732129417903	0.00065028970821	0.000328465847399	6.9973904625e-05	0.216
0.00499376359492	0.0788446914606	0.000677431128348	0.0791805323281	0.000674038178258	0.000335840867446	6.77160830644e-05	0.234
0.00537789865894	0.0838767914615	0.000696661885424	0.0842224924113	0.000693040245535	0.000345700949791	7.09436443285e-05	0.252
0.00576203359027	0.0894890976253	0.000717688028132	0.0898623182254	0.000713622859201	0.000373220600149	7.62792275173e-05	0.27
0.00614616837943	0.095896470165	0.000741079225029	0.0963029996587	0.000736285319149	0.0004065294937	8.41566787263e-05	0.288
0.00653030301693	0.101974808865	0.000762522755947	0.102420639664	0.000756708465939	0.000445830799348	9.39853760597e-05	0.306
0.00691443749331	0.108360770686	0.000783639778828	0.108824697364	0.000777495882843	0.00046392667856	9.79359746118e-05	0.324
0.00729857179908	0.114280492801	0.000802215495814	0.114773101661	0.000796056100345	0.000492608859839	9.92188834262e-05	0.342
0.00768270592476	0.119249081407	0.000816773094817	0.119746857901	0.000810693907045	0.000497776494814	9.94669668609e-05	0.36
0.00806683986089	0.124981003225	0.000833213137949	0.125478017222	0.00082737955458	0.00049701399784	9.84236044551e-05	0.378
0.00845097359797	0.131568209768	0.000852923687507	0.132096277589	0.000846346988246	0.000528067820787	0.000105714673524	0.396
0.00883510712653	0.136959497655	0.000867153646364	0.137490783618	0.00086076921482	0.000531285962895	0.000105032400817	0.414
0.00921924043709	0.141473926041	0.000879003085131	0.142026422523	0.000872147391009	0.000552496482087	0.000109568937329	0.432
0.00960337352018	0.146447909003	0.000891315303964	0.146981047069	0.00088465736589	0.000533138065758	0.00010873967104	0.45
0.00998750636631	0.148710982411	0.00089445723158	0.149212621085	0.000888841925952	0.00050163867374	0.000100068825297	0.468
0.010371638966	0.147626561746	0.000888346017757	0.148121861448	0.000882991934407	0.000495299702369	9.73852711505e-05	0.486
0.0107557713098	0.144683990857	0.000876925712706	0.145165882278	0.000871440464357	0.000481891421474	9.79296823526e-05	0.504
0.0111399033882	0.139246052657	0.000858191957169	0.139738839719	0.000852336390663	0.000492787062568	0.000100080530083	0.522
0.0115240351917	0.131895085722	0.000832858724667	0.132380755635	0.000827145780942	0.000485669913008	9.73833267218e-05	0.54
0.0119081667109	0.123960738725	0.000805254985185	0.124436742394	0.000799725888698	0.000476003669012	9.42024103253e-05	0.558
0.0122922979363	0.115467023694	0.000774950260085	0.11590264979	0.000769739240045	0.000435626096148	8.97184927458e-05	0.576
0.0126764288584	0.105559381262	0.000738109236604	0.105944618521	0.000733889712353	0.000385237258865	7.88107560063e-05	0.594
0.0130605594677	0.0951415020931	0.000698953632523	0.0955221594418	0.000694856753803	0.000380657348703	7.55663424505e-05	0.612
0.0134446897547	0.0845581485359	0.000657512184712	0.0849294169759	0.000653353292171	0.000371268440023	7.38359577276e-05	0.63
0.01382881971	0.0729895331708	0.000609712964503	0.073343740504	0.000605474227694	0.000354207333236	7.17694829387e-05	0.648
0.0142129493241	0.0618173436163	0.000559698002108	0.0621478272599	0.000555823734602	0.000330483643635	6.57406237974e-05	0.666
0.0145970785875	0.0510879112362	0.000507594199278	0.0513856205579	0.000504106934106	0.000297709321697	5.93975599423e-05	0.684
0.0149812074907	0.0407218470018	0.00045237940393	0.0409943644121	0.000449129160318	0.000272517410258	5.41306055021e-05	0.702
0.0153653360243	0.0321668719885	0.000401428218596	0.0324215160647	0.000398372934932	0.000254644076183	4.94329788551e-05	0.72
0.0157494641788	0.0251334430648	0.000353713715138	0.0253473422973	0.000351254347794	0.000213899232569	4.16386290899e-05	0.738
0.0161335919446	0.0191592885825	0.000307686416677	0.0193320335096	0.000305849805941	0.000172744927144	3.35682471022e-05	0.756
0.0165177193124	0.0139443736387	0.000262569681402	0.0141016812002	0.000260458767592	0.000157307561509	3.32275183517e-05	0.774
0.0169018462726	0.00977646958651	0.000219810750551	0.00991477797931	0.000217805966421	0.000138308392803	2.96197071057e-05	0.792
0.0172859728158	0.00703495627872	0.00018617040695	0.00715669110309	0.000184548191114	0.000121734824372	2.45231641613e-05	0.81
0.0176700989325	0.00526835272765	0.000161377378157	0.00538356019007	0.000159575875694	0.000115207462418	2.40457496712e-05	0.828
0.0180542246132	0.00411341600172	0.000141746843782	0.00420525258467	0.000140599237459	9.18365829513e-05	1.80006152137e-05	0.846
0.0184383498484	0.00325936320203	0.000125733011674	0.00333284904374	0.000124785533826	7.34858417078e-05	1.54065172044e-05	0.864
0.0188224746286	0.00284192367258	0.000117220392835	0.00291381701313	0.000116317277052	7.18933405508e-05	1.45227943439e-05	0.882
0.0192065989445	0.00278788396724	0.000115451839524	0.00284862096886	0.000114688978486	6.07370016194e-05	1.3250111817e-05	0.9
0.0195907227864	0.00285143708272	0.000116071741194	0.00290192598123	0.000115466114081	5.04888985152e-05	1.18416891866e-05	0.918
0.0199748461449	0.00307051010517	0.000120169442648	0.00312605361659	0.000119551748412	5.55435114236e-05	1.21685824159e-05	0.936
0.0203589690106	0.00330804740318	0.000124115006831	0.00335838094613	0.00012361377724	5.03335429514e-05	1.11431143293e-05	0.954
0.020743091374	0.00373113922577	0.000130588473614	0.00375676022817	0.000130397043003	2.56210024009e-05	7.06828245639e-06	0.972
0.0211272132255	0.00419097169463	0.000137770920827	0.00420899850187	0.000137695155681	1.80268072456e-05	4.56844912316e-06	0.99
0.0215113345557	0.00442625045266	0.000141380135246	0.00444816908522	0.000141253482038	2.19186325674e-05	5.98301381379e-06	1.008
0.0218954553552	0.00458168144187	0.000143799601563	0.0046151911209	0.000143568397365	3.35096790341e-05	8.15111572056e-06	1.026
0.0222795756144	0.00456199220334	0.000143400170788	0.00460296713678	0.000143041124972	4.09749334486e-05	1.01412794358e-05	1.044
0.0226636953239	0.00449843984831	0.000141662702776	0.00452693078232	0.000141483592423	2.84909340092e-05	7.12140665241e-06	1.062
0.0230478144742	0.00440528772036	0.000139716108073	0.00443003928299	0.000139564055712	2.4751562631e-05	6.51653345482e-06	1.08
0.0234319330558	0.00424685283368	0.000137079675802	0.00428118589089	0.000136809083954	3.43330572092e-05	8.60883649132e-06	1.098
0.0238160510593	0.00419252095925	0.000135604904936	0.00422111489703	0.000135450785144	2.85939377786e-05	6.46336186404e-06	1.116
0.0242001684751	0.00397839918803	0.000131545797768	0.00399814343871	0.000131458626592	1.97442506874e-05	4.78815257254e-06	1.134
0.0245842852938	0.00365506211216	0.000125800361649	0.00367446010385	0.000125707105418	1.93979916944e-05	4.84299891463e-06	1.152
0.0249684015059	0.00341084762075	0.000121335560298	0.00343226468289	0.000121203628564	2.14170621318e-05	5.65673189882e-06	1.17
0.0253525171019	0.00312005168161	0.000116101536242	0.00315114419827	0.000115859470195	3.10925166674e-05	7.49332261907e-06	1.188
0.0257366320724	0.00282971348801	0.000110408677571	0.00286202108598	0.000110175545241	3.23075979635e-05	7.17114452963e-06	1.206
0.0261207464079	0.00248541530452	0.00010311817015	0.00250931484528	0.000102953354336	2.38995407627e-05	5.82785089542e-06	1.224
0.0265048600988	0.00214447653598	9.544840722e-05	0.00216047925398	9.53170064332e-05	1.60027179957e-05	5.00666809802e-06	1.242
0.0268889731358	0.00183783312797	8.80587285415e-05	0.00184931996992	8.79805791695e-05	1.14868419526e-05	3.7090917139e-06	1.26
0.0272730855093	0.00143026881385	7.76915486422e-05	0.00144374979898	7.75507863457e-05	1.3480985129e-05	4.67464090358e-06	1.278
0.0276571972099	0.00111811781593	6.87043264219e-05	0.00113336939845	6.85545725157e-05	1.52515825149e-05	4.53376844101e-06	1.296
0.028041308228	0.000931517119841	6.29392081567e-05	0.000952242876744	6.27018812611e-05	2.07257569027e-05	5.46058693894e-06	1.314
0.0284254185543	0.000773360547021	5.7489751966e-05	0.000795339929128	5.7179076656e-05	2.19793821066e-05	5.96864925051e-06	1.332
0.0288095281792	0.000612335709392	5.08844893171e-05	0.000627359948194	5.06750870382e-05	1.50242388023e-05	4.61159481421e-06	1.35
0.0291936370933	0.000508820384756	4.63353319078e-05	0.000522765338709	4.61654542842e-05	1.39449539525e-05	3.96406530502e-06	1.368
0.029577745287	0.000454261284273	4.4121670026e-05	0.000473975823039	4.3857180337e-05	1.97145387661e-05	4.82384688502e-06	1.386
0.0299618527509	0.000376115789578	4.03112024705e-05	0.000396753798907	3.99993555014e-05	2.0638009328e-05	5.00445842095e-06	1.404
0.0303459594756	0.000311117553808	3.64749302174e-05	0.000327416947113	3.62256087784e-05	1.62993933054e-05	4.25744089748e-06	1.422
0.0307300654515	0.000334798937281	3.77623616179e-05	0.000352602160116	3.74975589906e-05	1.78032228348e-05	4.46419362369e-06	1.44
0.0311141706692	0.000402428680314	4.16560163284e-05	0.000426735284627	4.11495028194e-05	2.43066043129e-05	6.47627316241e-06	1.458
0.0314982751191	0.000445680526792	4.3462267612e-05	0.00046771612442	4.29705439673e-05	2.20355976287e-05	6.51928348319e-06	1.476
0.0318823787919	0.000502177546961	4.5318976882e-05	0.000517655715893	4.50932037401e-05	1.54781689324e-05	4.51803520146e-06	1.494
0.032266481678	0.000530075130424	4.69801459962e-05	0.000554908962068	4.65756187078e-05	2.48338316442e-05	6.15189887791e-06	1.512
0.0326505837679	0.000579037838972	4.89770132139e-05	0.000606225432856	4.85702728657e-05	2.71875938839e-05	6.29892190089e-06	1.53
0.0330346850522	0.000716083810187	5.3471572274e-05	0.000732523785488	5.32750680499e-05	1.64399753006e-05	4.57997442587e-06	1.548
0.0334187855215	0.000816353834261	5.66038063969e-05	0.000827482367251	5.65071984756e-05	1.11285329903e-05	3.30566469176e-06	1.566
0.0338028851661	0.000895082707444	5.90238912499e-05	0.000904471795453	5.8947259539e-05	9.38908800868e-06	3.0067143401e-06	1.584
0.0341869839767	0.000996556261999	6.22066441888e-05	0.00100804935895	6.20974921279e-05	1.14930969518e-05	3.68348376637e-06	1.602
0.0345710819438	0.00101067798433	6.25059040391e-05	0.00102163550688	6.23927008304e-05	1.09575225491e-05	3.7601759042e-06	1.62
0.0349551790579	0.00100534616229	6.21000292734e-05	0.00101406164654	6.20400275969e-05	8.71548425586e-06	2.72921445406e-06	1.638
0.0353392753095	0.00105608346442	6.35327131606e-05	0.00106526119092	6.34700317628e-05	9.17772649324e-06	2.82147294444e-06	1.656
0.0357233706891	0.0010607527961	6.36031941452e-05	0.00107054123048	6.35150718534e-05	9.78843437479e-06	3.34693186899e-06	1.674
0.0361074651873	0.00106517126165	6.36803703978e-05	0.0010759622627	6.35600209115e-05	1.07910010537e-05	3.91322318887e-06	1.692
0.0364915587945	0.00107669945957	6.38817978022e-05	0.00108837601863	6.37898331446e-05	1.16765590519e-05	3.42655480321e-06	1.71
0.0368756515014	0.00102161088989	6.22290642591e-05	0.0010354740142	6.20841233013e-05	1.38631243041e-05	4.24477001327e-06	1.728
0.0372597432984	0.000911370623758	5.87539824915e-05	0.000926635416606	5.86004785593e-05	1.52647928483e-05	4.24433401513e-06	1.746
0.0376438341761	0.000856119143345	5.68830819152e-05	0.000871792452329	5.67029067602e-05	1.56733089834e-05	4.52386705344e-06	1.764
0.0380279241249	0.000805238893027	5.50685231061e-05	0.0008207259308	5.48930062506e-05	1.54870377736e-05	4.39318811955e-06	1.782
0.0384120131354	0.000714570629066	5.1763943507e-05	0.000728188766462	5.16059793461e-05	1.36181373963e-05	4.04088395302e-06	1.8
0.0387961011982	0.000621791634651	4.82569363896e-05	0.000634798357629	4.81044393212e-05	1.30067229785e-05	3.83338327104e-06	1.818
0.0391801883037	0.00051696444799	4.40247352923e-05	0.00053022800318	4.38829242915e-05	1.32635551906e-05	3.53076099177e-06	1.836
0.0395642744424	0.000430675143375	4.01936748155e-05	0.000443314216705	4.00315737072e-05	1.26390733301e-05	3.60618935921e-06	1.854
0.039948359605	0.000345681886297	3.6173631201e-05	0.000359230157047	3.5959422026e-05	1.35482707496e-05	3.93084746911e-06	1.872
0.0403324437819	0.000295662621283	3.37498433017e-05	0.000312194089925	3.34581729021e-05	1.65314686424e-05	4.42748110594e-06	1.89
0.0407165269636	0.000248294528121	3.10575116302e-05	0.000265060612936	3.07620123869e-05	1.67660848151e-05	4.27406394045e-06	1.908
0.0411006091406	0.000196737015411	2.75252561787e-05	0.000209897673172	2.73114130197e-05	1.31606577604e-05	3.42438995607e-06	1.926
0.0414846903036	0.000142461770181	2.38746113924e-05	0.00015608070933	2.34995284138e-05	1.36189391495e-05	4.21535686124e-06	1.944
0.0418687704429	9.75170677966e-05	2.01628910174e-05	0.000110526387394	1.97513121316e-05	1.30093195979e-05	4.05312758985e-06	1.962
0.0422528495492	9.68646613741e-05	1.99475242446e-05	0.000108774763536	1.95594822854e-05	1.19101021619e-05	3.91540243368e-06	1.98
0.0426369276129	9.90912128422e-05	2.0339847444e-05	0.000113801173671	1.99490791135e-05	1.47099608287e-05	3.96782516842e-06	1.998
0.0430210046247	9.04076762435e-05	1.98709221813e-05	0.000107454742476	1.93224540812e-05	1.70470662326e-05	4.63641204087e-06	2.016
0.0434050805749	0.000117163964175	2.21920248211e-05	0.000135941566984	2.1681734351e-05	1.87776028092e-05	4.73163409307e-06	2.034
0.0437891554541	0.000141782660559	2.35958289671e-05	0.000156874055522	2.32563907915e-05	1.50913949626e-05	3.98791073108e-06	2.052
0.0441732292529	0.000166850298687	2.5357443593e-05	0.000181885770306	2.49955750328e-05	1.50354716189e-05	4.26862675206e-06	2.07
0.0445573019617	0.000218761258011	2.8643194453e-05	0.000235011045136	2.83549923499e-05	1.62497871256e-05	4.05302323135e-06	2.088
0.0449413735712	0.000276941351876	3.16793942707e-05	0.000291042049729	3.14998784236e-05	1.41006978531e-05	3.36774118018e-06	2.106
0.0453254440717	0.000348880257085	3.52964227297e-05	0.000361774078935	3.50524639579e-05	1.28938218497e-05	4.14273194784e-06	2.124
0.0457095134539	0.000382409429453	3.65929700637e-05	0.000393131844993	3.64506654565e-05	1.07224155392e-05	3.2240418514e-06	2.142
0.0460935817083	0.000422917064775	3.83201935932e-05	0.00043318747053	3.81879286782e-05	1.02704057555e-05	3.18109105294e-06	2.16
0.0464776488253	0.000516594397929	4.21603495689e-05	0.000526990305841	4.2058303363e-05	1.03959079121e-05	2.93158557766e-06	2.178
0.0468617147956	0.000535542019733	4.28914366213e-05	0.000546709767346	4.2772573834e-05	1.11677476128e-05	3.19096584947e-06	2.196
0.0472457796096	0.0005391004718	4.32921388078e-05	0.000556029420117	4.30641685675e-05	1.69289483172e-05	4.43696609693e-06	2.214
0.0476298432578	0.000610280521214	4.62488723161e-05	0.000632995509896	4.58725122594e-05	2.27149886821e-05	5.88819238121e-06	2.232
0.0480139057309	0.000647910596422	4.73765236293e-05	0.000669176946089	4.70799553832e-05	2.12663496672e-05	5.29271124438e-06	2.25
0.0483979670192	0.000664522857492	4.76646660054e-05	0.0006822474482	4.74359830168e-05	1.77245907077e-05	4.66346444545e-06	2.268
0.0487820271134	0.000649558032062	4.67761688085e-05	0.00066209862765	4.66349601058e-05	1.25405955871e-05	3.63186788502e-06	2.286
0.0491660860039	0.000640798398847	4.61991420122e-05	0.000650476340186	4.61130967752e-05	9.67794133913e-06	2.81833788979e-06	2.304
0.0495501436813	0.000636826597237	4.6168118025e-05	0.000650903067412	4.60265666088e-05	1.40764701751e-05	3.61251825949e-06	2.322
0.049934200136	0.000573400495617	4.39094505363e-05	0.000589537300945	4.37262069572e-05	1.61368053274e-05	4.00732723118e-06	2.34
0.0503182553588	0.000563130870586	4.34260188696e-05	0.00057721132704	4.31951511391e-05	1.40804564533e-05	4.47191602443e-06	2.358
0.0507023093399	0.000572516222294	4.35085756294e-05	0.000583737464142	4.33604552366e-05	1.12212418483e-05	3.5870705279e-06	2.376
0.05108636207	0.00052462684045	4.17965376264e-05	0.000539262527014	4.16055164342e-05	1.46356865635e-05	3.99143580699e-06	2.394
0.0514704135397	0.000486500361748	4.02815497052e-05	0.00050111874822	4.00431553383e-05	1.46183864722e-05	4.37595214879e-06	2.412
0.0518544637393	0.000446040469147	3.82836371273e-05	0.00045603718461	3.8122184683e-05	9.99671546297e-06	3.51225094397e-06	2.43
0.0522385126595	0.00039655964911	3.61248257056e-05	0.000407758753581	3.59700200914e-05	1.11991044702e-05	3.34076142362e-06	2.448
0.0526225602907	0.000360309610747	3.44542163173e-05	0.000372156692761	3.43003158589e-05	1.18470820138e-05	3.25289932528e-06	2.466
0.0530066066236	0.000296699203735	3.18398007369e-05	0.000314211659017	3.14663831875e-05	1.75124552817e-05	4.86206129755e-06	2.484
0.0533906516485	0.000255696239028	2.98209634218e-05	0.000275089873652	2.93918181051e-05	1.93936346239e-05	5.04092133268e-06	2.502
0.0537746953561	0.000254926677861	2.92394362079e-05	0.000268781592452	2.8992304536e-05	1.38549145904e-05	3.79353495367e-06	2.52
0.0541587377369	0.000216691847425	2.68517196223e-05	0.00022819857459	2.66663419733e-05	1.15067271648e-05	3.14977022058e-06	2.538
0.0545427787813	0.000172488438706	2.43333641447e-05	0.000185745392534	2.40183948972e-05	1.32569538287e-05	3.90247577277e-06	2.556
0.05492681848	0.000153298047461	2.31368653466e-05	0.000168223167679	2.28164523125e-05	1.49251202179e-05	3.83719193401e-06	2.574
0.0553108568234	0.000144367288311	2.25217810112e-05	0.000159337263171	2.21717014594e-05	1.49699748609e-05	3.95553717103e-06	2.592
0.055694893802	0.000153136221694	2.33292332408e-05	0.0001696236824	2.28334976475e-05	1.64874607061e-05	4.78377557838e-06	2.61
0.0560789294064	0.000156393716173	2.30115700138e-05	0.000169078588191	2.27497224682e-05	1.26848720188e-05	3.46157220325e-06	2.628
0.0564629636272	0.000161105935374	2.31576933316e-05	0.000172702912669	2.29483225829e-05	1.15969772951e-05	3.1069681472e-06	2.646
0.0568469964547	0.000186536275806	2.51235583255e-05	0.000201987032599	2.47818025485e-05	1.54507567925e-05	4.12982389223e-06	2.664
0.0572310278797	0.000243014926151	2.82156065714e-05	0.000257745306961	2.79471432859e-05	1.47303808097e-05	3.88299322032e-06	2.682
0.0576150578925	0.000299392927671	3.11428590055e-05	0.000316270962042	3.08912721384e-05	1.68780343711e-05	3.95056612447e-06	2.7
0.0579990864837	0.000351095953885	3.34549206248e-05	0.000366809250721	3.31964902611e-05	1.57132968352e-05	4.15027087706e-06	2.718
0.0583831136438	0.000374881795792	3.43059496898e-05	0.000387968724163	3.40779841583e-05	1.30869283705e-05	3.94831354151e-06	2.736
0.0587671393634	0.000417872729743	3.62472719971e-05	0.000434220992368	3.59952819107e-05	1.63482626251e-05	4.26666232537e-06	2.754
0.059151163633	0.0004905186289	3.91793371687e-05	0.00050863000196	3.88971958118e-05	1.81113730594e-05	4.69346555877e-06	2.772
