#Data reduced with Dominiques SARed v. 1.0
#wavelength: 5.1386
#q/A-1 	 Icorr/a.u. 	 sIcorr /a.u. 	Ispec/a.u. 	 sIspec/a.u. 	 Ibg/a.u. 	 sIbg/a.u. 	 2th/°
0.0	0.0019399952162	0.000150647041355	0.00224366995352	0.000117815809846	0.000303674737318	9.38827248181e-05	0.0
0.000341454157216	0.00587611190465	0.000365873569956	0.00709626075437	0.000209306928275	0.00122014884972	0.000300090118079	0.016
0.000682908307775	0.00718392816744	0.000549571750455	0.00920293759047	0.00023785233378	0.00201900942303	0.000495434532722	0.032
0.00102436244502	0.00559173709969	0.000546650798582	0.00764967848891	0.000216163798356	0.00205794138922	0.000502095915011	0.048
0.0013658165623	0.00491711359079	0.000430914774037	0.00647353761187	0.000197922859088	0.00155642402108	0.000382771582453	0.064
0.00170727065294	0.00712228619587	0.000317734869488	0.00805122293065	0.000219619868526	0.000928936734781	0.000229613938247	0.08
0.00204872471031	0.0127916786767	0.000307658943764	0.0133015818694	0.000281535395883	0.000509903192713	0.000124063880897	0.096
0.00239017872773	0.0215178694986	0.000367344624913	0.0218324316533	0.000360028972082	0.000314562154733	7.29466429262e-05	0.112
0.00273163269856	0.0311935546199	0.000434515398956	0.0314367965421	0.000431200112517	0.000243241922186	5.35732666105e-05	0.128
0.00307308661613	0.0399482687247	0.000489183458007	0.0401818889458	0.000486520253503	0.000233620221106	5.09754697772e-05	0.144
0.00341454047378	0.0467450997774	0.000528183854139	0.0470129631034	0.000524990136596	0.000267863325943	5.7996036499e-05	0.16
0.00375599426488	0.0520946111904	0.000555920327204	0.0523780611376	0.00055263699629	0.000283449947224	6.03304278971e-05	0.176
0.00409744798274	0.0575340554158	0.000581743242425	0.0578018227206	0.000578874730649	0.000267767304821	5.76996215134e-05	0.192
0.00443890162072	0.0625565029394	0.000604801815103	0.0628234997016	0.000601813900208	0.000266996762184	6.00438595353e-05	0.208
0.00478035517217	0.0671528980416	0.000624774091697	0.0674358577299	0.000621851694383	0.000282959688307	6.03583950173e-05	0.224
0.00512180863042	0.0716447807738	0.000643575106873	0.0719419489619	0.000640486830055	0.000297168188067	6.2972523475e-05	0.24
0.00546326198882	0.0752870921739	0.000658358799785	0.0756065268776	0.000654755282461	0.000319434703678	6.8788293658e-05	0.256
0.00580471524071	0.0798488079004	0.000677196307647	0.0802180643352	0.000672618457	0.000369256434778	7.86082081816e-05	0.272
0.00614616837943	0.08485835892	0.000696981410226	0.0852799282993	0.000691610945251	0.000421569379291	8.63561613922e-05	0.288
0.00648762139833	0.0898444245873	0.000714948377687	0.0902704383238	0.000709591444415	0.000426013736502	8.73565382217e-05	0.304
0.00682907429075	0.0947858752042	0.000731802571081	0.0952174865975	0.000726766055694	0.000431611393254	8.57094121528e-05	0.32
0.00717052705003	0.0990175802311	0.000745976180002	0.0994626683101	0.000740664861702	0.000445088079006	8.88595733237e-05	0.336
0.00751197966952	0.104592250387	0.000763804958884	0.105010479877	0.000758850348295	0.000418229489496	8.68571477104e-05	0.352
0.00785343214256	0.109084082616	0.000777439403229	0.109489054879	0.000772582804559	0.000404972262824	8.67631015661e-05	0.368
0.0081948844625	0.112888586282	0.000788245429116	0.113303774585	0.000783556515206	0.000415188302779	8.58489603898e-05	0.384
0.00853633662267	0.117725048357	0.000802380631277	0.118167589875	0.000797798731675	0.000442541517867	8.56262879457e-05	0.4
0.00887778861642	0.122104521735	0.000815513470153	0.122587176183	0.000810159443938	0.000482654448558	9.32946697183e-05	0.416
0.00921924043709	0.126604054105	0.000828437292636	0.127098743442	0.000822543715815	0.000494689337226	9.86416920155e-05	0.432
0.00956069207803	0.129278792368	0.000835498285929	0.129789866601	0.000828863139387	0.000511074232769	0.000105087020871	0.448
0.00990214353258	0.130090952894	0.000835083780845	0.130585011802	0.000829146360729	0.000494058907471	9.94043938705e-05	0.464
0.0102435947941	0.128597835461	0.000827262865681	0.129051104563	0.000822193959152	0.000453269102306	9.14381893324e-05	0.48
0.0105850458559	0.12298415174	0.000806393412618	0.123401474769	0.000802010409868	0.000417323028399	8.39621246612e-05	0.496
0.0109264967113	0.116884212077	0.000783227689264	0.11725978168	0.00077982106684	0.000375569603645	7.29706580848e-05	0.512
0.0112679473537	0.109507571763	0.000756913909923	0.109895799236	0.000753094651165	0.000388227473167	7.59415131615e-05	0.528
0.0116093977765	0.101001965537	0.000726006414723	0.101394740378	0.000721680639508	0.00039277484109	7.91351298635e-05	0.544
0.0119508479729	0.0938143334038	0.000698511406844	0.0941989696869	0.000693941392275	0.000384636283154	7.97717342084e-05	0.56
0.0122922979363	0.0856887726205	0.000665906015715	0.0860519732491	0.000661562742394	0.000363200628534	7.59312823688e-05	0.576
0.0126337476601	0.0767221052795	0.000627568901955	0.0770398628832	0.000624260178264	0.000317757603651	6.43580339507e-05	0.592
0.0129751971376	0.0679577260058	0.000589136820301	0.0682597458362	0.000586017467903	0.000302019830329	6.05451926022e-05	0.608
0.0133166463621	0.0590712143043	0.000548060446971	0.0593593135689	0.000545086639577	0.000288099264643	5.70158652393e-05	0.624
0.013658095327	0.050758188047	0.000506779835364	0.0510231015392	0.000504193998694	0.000264913492217	5.11293771921e-05	0.64
0.0139995440256	0.0430900993468	0.000466712112424	0.0433518330427	0.000463719369907	0.000261733695853	5.27687583323e-05	0.656
0.0143409924513	0.0359268718952	0.000426284517037	0.0361941556731	0.000422762051722	0.00026728377795	5.46876319579e-05	0.672
0.0146824405975	0.0293586931511	0.000384181704049	0.0295870067895	0.000381353992346	0.000228313638413	4.65264897363e-05	0.688
0.0150238884573	0.0239080225449	0.000346013053906	0.0241129024231	0.000343459340737	0.000204879878124	4.19608714656e-05	0.704
0.0153653360243	0.0197057863027	0.000313978856981	0.0199056459424	0.000311300403893	0.000199859639634	4.09240903026e-05	0.72
0.0157067832917	0.0157446102491	0.000279826257139	0.0159126771717	0.000277672693113	0.00016806692256	3.4649815063e-05	0.736
0.016048230253	0.0123882904108	0.000247706070342	0.0125344201208	0.000245860466236	0.000146129709965	3.01815908545e-05	0.752
0.0163896769013	0.00968688414605	0.000218670041651	0.00981704107915	0.000217041028021	0.0001301569331	2.66416829642e-05	0.768
0.0167311232301	0.00728412892027	0.000189564500056	0.00740071104573	0.000187962382982	0.000116582125461	2.45935411313e-05	0.784
0.0170725692328	0.00550517326559	0.000164948502507	0.00561725518334	0.000163358118991	0.000112081917751	2.28502393689e-05	0.8
0.0174140149026	0.0044116876281	0.000147615949929	0.00451481054576	0.00014608799894	0.000103122917658	2.11840798514e-05	0.816
0.0177554602329	0.00363325141648	0.000133304355148	0.00371399122457	0.000132155222714	8.07398080906e-05	1.74656294104e-05	0.832
0.018096905217	0.00305863506583	0.000121383195816	0.00311614880041	0.000120722178327	5.75137345789e-05	1.2650529107e-05	0.848
0.0184383498484	0.00264662264827	0.000112490883109	0.002696353816	0.000112002993932	4.97311677234e-05	1.04655689204e-05	0.864
0.0187797941202	0.0024008850959	0.000107150827101	0.0024528536934	0.00010657736872	5.19685975039e-05	1.10708728194e-05	0.88
0.019121238026	0.00237661263695	0.000106112412366	0.00242085133003	0.000105642118478	4.42386930801e-05	9.97932169233e-06	0.896
0.019462681559	0.00241497984901	0.000106651937717	0.00245846229529	0.000106169868506	4.34824462815e-05	1.01289111071e-05	0.912
0.0198041247125	0.00248506932551	0.000107850163268	0.00253043004471	0.000107397555386	4.53607192005e-05	9.87029958984e-06	0.928
0.02014556748	0.0026688754388	0.000111188841791	0.00271044472582	0.000110862633333	4.15692870199e-05	8.5108794691e-06	0.944
0.0204870098547	0.00281176605411	0.000113575503064	0.00284429411363	0.000113315783168	3.25280595242e-05	7.67646931168e-06	0.96
0.02082845183	0.00292529246881	0.000115460673152	0.00295331211355	0.000115228161865	2.80196447383e-05	7.32378030046e-06	0.976
0.0211698933992	0.00301085594737	0.000116941806548	0.00304126282417	0.000116692651579	3.04068768005e-05	7.62962556251e-06	0.992
0.0215113345557	0.00305264291325	0.000117445219632	0.00308105487946	0.000117190994296	2.84119662029e-05	7.72337168448e-06	1.008
0.0218527752929	0.0031936943753	0.000119878849307	0.00322379058976	0.000119591289217	3.00962144559e-05	8.29831635837e-06	1.024
0.022194215604	0.00324265143345	0.000120425800578	0.00327051048009	0.000120157810225	2.785904664e-05	8.02957575472e-06	1.04
0.0225356554824	0.00321247096202	0.000119382445752	0.0032350493223	0.000119218932473	2.2578360281e-05	6.2461583113e-06	1.056
0.0228770949215	0.00314566776803	0.000117677792846	0.00316172231328	0.000117609397183	1.60545452492e-05	4.01156120193e-06	1.072
0.0232185339146	0.00311464257266	0.000116700787988	0.0031237929665	0.000116660821293	9.15039384076e-06	3.05396336929e-06	1.088
0.023559972455	0.00311521409097	0.000116601702619	0.00312808990698	0.000116509828109	1.28758160088e-05	4.62785128844e-06	1.104
0.0239014105361	0.00300309257585	0.000114324933827	0.00301804485523	0.000114228447274	1.49522793759e-05	4.69599061888e-06	1.12
0.0242428481513	0.00283497374694	0.000110816790792	0.00284908828087	0.000110754862258	1.41145339321e-05	3.70426884574e-06	1.136
0.0245842852938	0.00268652875985	0.000107929069607	0.00270962328658	0.000107771383345	2.30945267308e-05	5.83206638079e-06	1.152
0.024925721957	0.00249935123542	0.000103895178865	0.00252072300415	0.00010373738541	2.13717687244e-05	5.72390249489e-06	1.168
0.0252671581343	0.00225406480733	9.83068412601e-05	0.00226907063139	9.82207587498e-05	1.50058240552e-05	4.1130997004e-06	1.184
0.025608593819	0.00207449390857	9.42559192617e-05	0.00209303497502	9.41294129847e-05	1.85410664455e-05	4.88179547171e-06	1.2
0.0259500290044	0.00183341203709	8.85341488751e-05	0.00185239089545	8.83692811653e-05	1.89788583654e-05	5.40052436156e-06	1.216
0.026291463684	0.00161193355099	8.28472812921e-05	0.00162817576908	8.26837568462e-05	1.62422180879e-05	5.20272729394e-06	1.232
0.0266328978509	0.00139094379058	7.68482213436e-05	0.00140723251392	7.6717802079e-05	1.62887233446e-05	4.4752617628e-06	1.248
0.0269743314987	0.0012215489566	7.19881416222e-05	0.0012380922574	7.18219529266e-05	1.65433008e-05	4.88872294361e-06	1.264
0.0273157646206	0.00111147580268	6.84854572449e-05	0.00112610925452	6.83585989508e-05	1.46334518402e-05	4.16650975321e-06	1.28
0.0276571972099	0.000903240642887	6.15995120412e-05	0.000914894582994	6.14784692242e-05	1.16539401072e-05	3.85975459845e-06	1.296
0.02799862926	0.000734406307562	5.55872454482e-05	0.000747305940675	5.54445404732e-05	1.28996331129e-05	3.98055124732e-06	1.312
0.0283400607643	0.000641150409876	5.21369900592e-05	0.000658767067399	5.19471750152e-05	1.76166575233e-05	4.44485549476e-06	1.328
0.0286814917161	0.000545300746485	4.81930553068e-05	0.000563673211275	4.79415534299e-05	1.83724647902e-05	4.91711648542e-06	1.344
0.0290229221087	0.000444062679746	4.33502919759e-05	0.000458992164524	4.31545502574e-05	1.4929484778e-05	4.11492484436e-06	1.36
0.0293643519355	0.000361475333451	3.91402256774e-05	0.000375238594492	3.89409487138e-05	1.37632610405e-05	3.94458861589e-06	1.376
0.0297057811899	0.000271110129496	3.46140632361e-05	0.000290751670631	3.42109548403e-05	1.96415411347e-05	5.26725190477e-06	1.392
0.0300472098651	0.000249416327824	3.33720290273e-05	0.000270479192044	3.29205083035e-05	2.10628642192e-05	5.47105606198e-06	1.408
0.0303886379545	0.000287483801653	3.51633246482e-05	0.000302904793512	3.47800700767e-05	1.54209918588e-05	5.1774632563e-06	1.424
0.0307300654515	0.000289662741685	3.5096737123e-05	0.000304018191227	3.47832180105e-05	1.43554495422e-05	4.68067319018e-06	1.44
0.0310714923494	0.000288225541374	3.50190566429e-05	0.000303866767822	3.46981967394e-05	1.5641226448e-05	4.72963753282e-06	1.456
0.0314129186415	0.000326235743591	3.67659157065e-05	0.000339534240346	3.65716090119e-05	1.32984967549e-05	3.77491351128e-06	1.472
0.0317543443212	0.000368540882771	3.87068405364e-05	0.000379482860189	3.85778676463e-05	1.0941977418e-05	3.15715571063e-06	1.488
0.0320957693819	0.000396151917237	4.0025468378e-05	0.000407399518129	3.99054373684e-05	1.12476008916e-05	3.09744851625e-06	1.504
0.0324371938168	0.000421048499326	4.13389114704e-05	0.000435202051366	4.11619162464e-05	1.41535520401e-05	3.82128937414e-06	1.52
0.0327786176193	0.000455337185893	4.28859882812e-05	0.000469757724542	4.26855191552e-05	1.44205386494e-05	4.14179252332e-06	1.536
0.0331200407828	0.000502874577404	4.46728444838e-05	0.000513387610418	4.45490947282e-05	1.05130330137e-05	3.32282909164e-06	1.552
0.0334614633007	0.000549549849321	4.64980047565e-05	0.000559124421687	4.64046608885e-05	9.57457236651e-06	2.9448080002e-06	1.568
0.0338028851661	0.000634933766168	4.98965494608e-05	0.000646134732804	4.9784273182e-05	1.1200966636e-05	3.34541355232e-06	1.584
0.0341443063726	0.000695624864438	5.21321430764e-05	0.000707430904144	5.2001934855e-05	1.18060397062e-05	3.68227009725e-06	1.6
0.0344857269134	0.000707195908645	5.25473946322e-05	0.000720329121042	5.2378208729e-05	1.3133212397e-05	4.21330428203e-06	1.616
0.0348271467819	0.000764706824856	5.43891803796e-05	0.000776826631234	5.42668312461e-05	1.21198063783e-05	3.64608953248e-06	1.632
0.0351685659714	0.000783458669589	5.47870254895e-05	0.000792778524987	5.470313591e-05	9.3198553982e-06	3.0306902835e-06	1.648
0.0355099844753	0.000774732016639	5.45422300032e-05	0.000786975783731	5.44048668443e-05	1.22437670922e-05	3.86850324691e-06	1.664
0.0358514022869	0.000747903368759	5.35520218288e-05	0.000761276344878	5.3405352599e-05	1.33729761193e-05	3.96072666643e-06	1.68
0.0361928193995	0.000721810819333	5.23144409552e-05	0.000731035833465	5.22348041953e-05	9.22501413199e-06	2.88547450744e-06	1.696
0.0365342358066	0.000713803935081	5.19764666203e-05	0.000723989206456	5.18807430115e-05	1.01852713748e-05	3.15302821313e-06	1.712
0.0368756515014	0.000657243972823	4.99138707986e-05	0.000669741302886	4.97918885326e-05	1.24973300624e-05	3.48745386527e-06	1.728
0.0372170664773	0.000635290293809	4.9004903591e-05	0.000647790015669	4.88685703631e-05	1.249972186e-05	3.6528627998e-06	1.744
0.0375584807276	0.000619479027442	4.84664753289e-05	0.000634813156164	4.8294904631e-05	1.53341287228e-05	4.0744837086e-06	1.76
0.0378998942457	0.000581126626148	4.70965629665e-05	0.000599190072633	4.68449827903e-05	1.80634464853e-05	4.86146383694e-06	1.776
0.038241307025	0.000547625734311	4.56581979061e-05	0.000565415985069	4.54278243236e-05	1.77902507573e-05	4.58080923614e-06	1.792
0.0385827190587	0.000520983468957	4.4312148781e-05	0.000534977372301	4.41006518426e-05	1.39939033443e-05	4.32423827284e-06	1.808
0.0389241303402	0.000458013668707	4.12878127257e-05	0.000467860243074	4.11529279425e-05	9.84657436696e-06	3.33466661551e-06	1.824
0.0392655408628	0.000372599697078	3.73706410902e-05	0.000382610060168	3.71306025328e-05	1.001036309e-05	4.22884984852e-06	1.84
0.03960695062	0.000337812533271	3.56072446747e-05	0.000348682242084	3.53665511197e-05	1.08697088124e-05	4.13315076193e-06	1.856
0.039948359605	0.000297950966047	3.34226663959e-05	0.000308894337983	3.32303575535e-05	1.09433719358e-05	3.5802186919e-06	1.872
0.0402897678112	0.00025771198118	3.10448946862e-05	0.000267277382845	3.08713346525e-05	9.56540166446e-06	3.27813710029e-06	1.888
0.0406311752319	0.000203800012125	2.78194993043e-05	0.000214375970197	2.76112902708e-05	1.05759580718e-05	3.3972328624e-06	1.904
0.0409725818605	0.000156903596435	2.45728349373e-05	0.000167104742782	2.43555308114e-05	1.02011463474e-05	3.26072626167e-06	1.92
0.0413139876903	0.000146408335422	2.34757259121e-05	0.000153602595184	2.33097113991e-05	7.19425976143e-06	2.78694484917e-06	1.936
0.0416553927147	0.000119849058942	2.12673656251e-05	0.000125798121523	2.10458244474e-05	5.94906258074e-06	3.06171748513e-06	1.952
0.0419967969269	8.0731746066e-05	1.76348287789e-05	8.73776830926e-05	1.74985967577e-05	6.64593702654e-06	2.18776085785e-06	1.968
0.0423382003205	6.91694907144e-05	1.65855840254e-05	7.70558489811e-05	1.6401163755e-05	7.8863582666e-06	2.46646000267e-06	1.984
0.0426796028886	7.76512534013e-05	1.74675341081e-05	8.59081147647e-05	1.72981151563e-05	8.2568613634e-06	2.42692394978e-06	2.0
0.0430210046247	7.31005191688e-05	1.76296519151e-05	8.4669937715e-05	1.71510498064e-05	1.15694185462e-05	4.07996534148e-06	2.016
0.043362405522	8.14173200915e-05	1.81930284202e-05	9.24509054874e-05	1.78898984621e-05	1.10335853959e-05	3.3072369307e-06	2.032
0.043703805574	9.4271436413e-05	1.89398010061e-05	0.000102386780108	1.87712809166e-05	8.11534369486e-06	2.52092738908e-06	2.048
0.0440452047739	0.000102381619048	1.96531084186e-05	0.000110657335335	1.9466932804e-05	8.2757162867e-06	2.6987400236e-06	2.064
0.0443866031152	0.000112769065494	2.04635226558e-05	0.000120361080746	2.02813584147e-05	7.59201525208e-06	2.72438256098e-06	2.08
0.0447280005911	0.000132738832617	2.2442715009e-05	0.000143821404185	2.21336606103e-05	1.10825715685e-05	3.71167414557e-06	2.096
0.045069397195	0.000171011869905	2.54884809745e-05	0.000186395827577	2.51361053532e-05	1.53839576726e-05	4.22360865378e-06	2.112
0.0454107929203	0.000214670090211	2.78501250259e-05	0.00022618279928	2.76408280347e-05	1.15127090697e-05	3.40794505719e-06	2.128
0.0457521877603	0.000276943162893	3.14123412625e-05	0.000289373478615	3.12173598813e-05	1.24303157214e-05	3.49451364765e-06	2.144
0.0460935817083	0.000295471908932	3.26859980865e-05	0.000311915809425	3.23573751246e-05	1.64439004935e-05	4.62328302746e-06	2.16
0.0464349747577	0.000305922882976	3.28272242768e-05	0.000318362157524	3.26462057435e-05	1.24392745476e-05	3.44265947593e-06	2.176
0.0467763669018	0.000354258765372	3.48994238126e-05	0.000362708141527	3.479500014e-05	8.44937615482e-06	2.69773010302e-06	2.192
0.047117758134	0.000358603544687	3.53105650204e-05	0.000370116763309	3.510486014e-05	1.15132186223e-05	3.80588972676e-06	2.208
0.0474591484476	0.000393848010278	3.70545155243e-05	0.00040751827054	3.67779311394e-05	1.36702602621e-05	4.51894919757e-06	2.224
0.0478005378359	0.000436761221971	3.86982506626e-05	0.00044897905889	3.85299922138e-05	1.22178369187e-05	3.60476134392e-06	2.24
0.0481419262924	0.000441066139597	3.88157114497e-05	0.000453739272639	3.86658752364e-05	1.26731330416e-05	3.40727861356e-06	2.256
0.0484833138103	0.000460964350668	3.96386610954e-05	0.0004742231841	3.94561750104e-05	1.32588334314e-05	3.79917188058e-06	2.272
0.048824700383	0.000492732405504	4.07308978828e-05	0.000503504845601	4.0584049353e-05	1.0772440097e-05	3.45557237627e-06	2.288
0.0491660860039	0.000518028498651	4.15904385924e-05	0.000527585590745	4.1489603926e-05	9.55709209431e-06	2.8943649339e-06	2.304
0.0495074706662	0.000488575390074	4.0371090386e-05	0.000498392484173	4.02737311051e-05	9.81709409851e-06	2.80205671443e-06	2.32
0.0498488543633	0.000438621683874	3.82071290063e-05	0.000447902521456	3.8118578073e-05	9.28083758219e-06	2.59975241049e-06	2.336
0.0501902370887	0.000417958158967	3.72336833404e-05	0.00042666167319	3.71423661128e-05	8.70351422228e-06	2.60611101793e-06	2.352
0.0505316188355	0.000403162484281	3.6617303714e-05	0.000413174730145	3.64901503564e-05	1.00122458646e-05	3.04891099465e-06	2.368
0.0508729995972	0.000407093868988	3.67585540659e-05	0.000417727772923	3.66299672644e-05	1.0633903935e-05	3.07193672245e-06	2.384
0.0512143793671	0.000403092209706	3.64657203929e-05	0.000412820605069	3.63419770263e-05	9.72839536287e-06	3.00157784951e-06	2.4
0.0515557581386	0.000373159051938	3.50728921006e-05	0.000382609768876	3.4929995095e-05	9.45071693796e-06	3.16278405314e-06	2.416
0.0518971359049	0.000342342899228	3.33520235974e-05	0.000348436705871	3.32862942394e-05	6.09380664263e-06	2.0928673752e-06	2.432
0.0522385126595	0.000305812762624	3.15064612531e-05	0.000311925648072	3.14475338754e-05	6.11288544767e-06	1.926061747e-06	2.448
0.0525798883956	0.000288358602807	3.07437534945e-05	0.000296633839221	3.06233024594e-05	8.27523641415e-06	2.71877277615e-06	2.464
