#Data reduced with Dominiques SARed v. 1.0
#wavelength: 5.1386
#q/A-1 	 Icorr/a.u. 	 sIcorr /a.u. 	Ispec/a.u. 	 sIspec/a.u. 	 Ibg/a.u. 	 sIbg/a.u. 	 2th/°
0.0	0.00276976518432	0.000256231910328	0.00325029560618	0.00020199990263	0.000480530421858	0.000157641464113	0.0
0.000384135926537	0.0091926987983	0.000546517150593	0.0107292076739	0.000366813786478	0.00153650887558	0.000405127932809	0.018
0.000768271843595	0.0128196313601	0.000686066362668	0.014942854257	0.000432444779024	0.00212322289695	0.000532614839335	0.036
0.0011524077417	0.0110655356794	0.00058251528507	0.0127650483691	0.000399000109283	0.00169951268975	0.000424408965659	0.054
0.00153654361136	0.00912325193747	0.000427212262081	0.0100918177645	0.000353607568561	0.000968565826987	0.000239733194048	0.072
0.00192067944312	0.0118620910019	0.000414580814804	0.012426345721	0.000390563685881	0.000564254719133	0.000139058474299	0.09
0.00230481522748	0.0205150347233	0.00051234995022	0.0208726663179	0.000504648773315	0.000357631594647	8.84990795562e-05	0.108
0.00268895095498	0.0328640991716	0.000637161414845	0.0331156578982	0.000634421797206	0.000251558726651	5.90224685751e-05	0.126
0.00307308661613	0.0453424126117	0.000745167109815	0.0455901929152	0.000743092582554	0.000247780303479	5.55646947612e-05	0.144
0.00345722220145	0.0549362253418	0.000818456261633	0.0551960177986	0.000816384259285	0.000259792456777	5.82013178381e-05	0.162
0.00384135770147	0.0622348117763	0.00087022300645	0.0625254219107	0.000867657824261	0.000290610134401	6.67681132911e-05	0.18
0.0042254931067	0.0686626720705	0.000912302750803	0.0689858887045	0.000909601740918	0.000323216634027	7.014971163e-05	0.198
0.00460962840768	0.0748375099826	0.000949364567111	0.0751665361672	0.00094676474142	0.000329026184608	7.02111507572e-05	0.216
0.00499376359492	0.0798169997997	0.00097700554409	0.0801652359141	0.000974353265348	0.000348236114372	7.19412780596e-05	0.234
0.00537789865894	0.0848989037171	0.00100468902191	0.0853050794403	0.00100146983964	0.000406175723236	8.0362871026e-05	0.252
0.00576203359027	0.0906939551488	0.00103595379433	0.0911588499309	0.00103172458813	0.000464894782066	9.35127705149e-05	0.27
0.00614616837943	0.0964153661337	0.00106542911182	0.0969149207496	0.00106039436635	0.000499554615855	0.000103455208312	0.288
0.00653030301693	0.103066932882	0.00109767413594	0.103559211116	0.00109277115445	0.000492278233864	0.000103632585187	0.306
0.00691443749331	0.108784189076	0.00112387266063	0.109265504281	0.00111931662075	0.000481315205711	0.000101094311482	0.324
0.00729857179908	0.114080598978	0.00114783115827	0.114561852445	0.00114331391039	0.000481253467685	0.000101733328831	0.342
0.00768270592476	0.119802657688	0.00117286611501	0.120279874818	0.00116875209984	0.000477217129653	9.81501546151e-05	0.36
0.00806683986089	0.125217249155	0.00119612348727	0.12572499008	0.00119191814262	0.000507740924638	0.000100212464784	0.378
0.00845097359797	0.131659451518	0.0012233130319	0.132198564257	0.00121895249683	0.000539112739077	0.000103196824044	0.396
0.00883510712653	0.137914431575	0.00124834876615	0.13845202846	0.00124403171901	0.00053759688534	0.000103729089594	0.414
0.00921924043709	0.142171944881	0.00126320471001	0.142671027124	0.00125949988792	0.000499082243367	9.66756004921e-05	0.432
0.00960337352018	0.146411213066	0.00127813522657	0.146884806231	0.00127479483982	0.000473593165127	9.2345946165e-05	0.45
0.00998750636631	0.147013842002	0.00127863280776	0.147520195845	0.00127461800421	0.000506353842946	0.00010124623661	0.468
0.010371638966	0.142303476554	0.00125556307288	0.142800725387	0.00125132514472	0.000497248833475	0.000103072848817	0.486
0.0107557713098	0.134294097642	0.00121698300313	0.134770647123	0.00121296295246	0.000476549481374	9.8835751962e-05	0.504
0.0111399033882	0.123722068162	0.0011665020986	0.124209632798	0.00116174622511	0.000487564635542	0.000105227631778	0.522
0.0115240351917	0.112346257904	0.00110850135691	0.112778797384	0.00110415078919	0.000432539479269	9.81136737876e-05	0.54
0.0119081667109	0.100925680585	0.00104774256374	0.101336220915	0.00104400397938	0.000410540329324	8.84317301536e-05	0.558
0.0122922979363	0.09033001949	0.00099025626858	0.0907604483747	0.000985712615166	0.000430428884661	9.47529301097e-05	0.576
0.0126764288584	0.0797916262213	0.000928363984386	0.0801767261302	0.000924299784164	0.000385099908866	8.67732476014e-05	0.594
0.0130605594677	0.0688903848144	0.000860371269222	0.0692489338951	0.000856956716737	0.000358549080751	7.65761486442e-05	0.612
0.0134446897547	0.0588272594617	0.000793085369433	0.0591568654051	0.000790047908748	0.000329605943367	6.9344827434e-05	0.63
0.01382881971	0.049673954908	0.000725817294641	0.049926411036	0.00072382573561	0.000252456128022	5.37312727278e-05	0.648
0.0142129493241	0.0406549228428	0.000654699176091	0.040868313721	0.000653174028738	0.000213390878275	4.46620572292e-05	0.666
0.0145970785875	0.0324158729847	0.0005838384325	0.0326270495526	0.00058215257498	0.000211176567913	4.43361557642e-05	0.684
0.0149812074907	0.0251429000348	0.00051319155699	0.0253353515277	0.000511712364823	0.000192451492913	3.8936228023e-05	0.702
0.0153653360243	0.019162172949	0.000447911083729	0.0193529469741	0.00044614350624	0.000190774025098	3.97531227344e-05	0.72
0.0157494641788	0.0148708798332	0.000394684760352	0.0150633070398	0.000392650550114	0.000192427206636	4.0020064333e-05	0.738
0.0161335919446	0.0115644574546	0.000347569603573	0.0117283405373	0.00034568056745	0.000163883082641	3.61880451991e-05	0.756
0.0165177193124	0.00881470542229	0.000303005530898	0.00895015704794	0.000301307377955	0.000135451625651	3.20346023014e-05	0.774
0.0169018462726	0.00650138405595	0.000259619196942	0.00660993956254	0.000258329204611	0.000108555506589	2.58485873154e-05	0.792
0.0172859728158	0.00477399351518	0.000221602083861	0.00485421567656	0.000220828353576	8.02221613807e-05	1.85019412071e-05	0.81
0.0176700989325	0.00387546514039	0.000199404053594	0.00394773316813	0.000198629837362	7.22680277405e-05	1.75546090695e-05	0.828
0.0180542246132	0.00320342016959	0.000181443335872	0.00327424113702	0.000180411721423	7.08209674358e-05	1.93208412177e-05	0.846
0.0184383498484	0.00254830405176	0.000161505770898	0.00261212272961	0.000160731603705	6.38186778427e-05	1.57944801659e-05	0.864
0.0188224746286	0.00231880115317	0.000153848602964	0.00237941175024	0.000153091325089	6.06105970671e-05	1.52459442584e-05	0.882
0.0192065989445	0.00234738792726	0.000154285990668	0.00240655545488	0.000153657504258	5.91675276236e-05	1.39118043982e-05	0.9
0.0195907227864	0.00259085856015	0.000161490480261	0.00264849635549	0.000160867328986	5.76377953418e-05	1.41731323247e-05	0.918
0.0199748461449	0.0029212542552	0.000170389199181	0.0029699388374	0.000169941868784	4.86845821983e-05	1.23385749424e-05	0.936
0.0203589690106	0.00303991972264	0.000173234354555	0.00308891356874	0.000172803586453	4.89938461065e-05	1.22090993491e-05	0.954
0.020743091374	0.00311985822515	0.000174631951412	0.00316033094209	0.000174310690892	4.04727169368e-05	1.05877993366e-05	0.972
0.0211272132255	0.00329009521231	0.000178029521996	0.00330805057559	0.000177908041957	1.79553632815e-05	6.5756603557e-06	0.99
0.0215113345557	0.00333481220734	0.000178714781934	0.00335186881638	0.000178599624523	1.70566090355e-05	6.4146240704e-06	1.008
0.0218954553552	0.0034723739383	0.000182055669367	0.00349325147331	0.000181913726487	2.08775350098e-05	7.18768839006e-06	1.026
0.0222795756144	0.0036531945419	0.000186212608762	0.00367041860213	0.000186127611217	1.72240602205e-05	5.62565592591e-06	1.044
0.0226636953239	0.00364549379176	0.000185704284962	0.00366322944974	0.000185584649961	1.77356579826e-05	6.66476946975e-06	1.062
0.0230478144742	0.00357055257345	0.000183451979166	0.00358910707474	0.000183332702776	1.85545012967e-05	6.61428401405e-06	1.08
0.0234319330558	0.00355631196533	0.000182848951733	0.00357836336818	0.000182700344753	2.20514028519e-05	7.37042583127e-06	1.098
0.0238160510593	0.00348926534576	0.000180592215051	0.0035067797981	0.000180505459338	1.75144523371e-05	5.59707836489e-06	1.116
0.0242001684751	0.00316241382135	0.000171498654853	0.00317582388101	0.000171424216313	1.34100596601e-05	5.05239329508e-06	1.134
0.0245842852938	0.00282833690227	0.000162322067817	0.00285435588231	0.00016212302364	2.60189800408e-05	8.03610018595e-06	1.152
0.0249684015059	0.00252168847803	0.000153108543974	0.00255154622078	0.000152879207229	2.98577427498e-05	8.37700631398e-06	1.17
0.0253525171019	0.00221034254528	0.000142809736658	0.00223282519768	0.000142652049855	2.24826524048e-05	6.70921431027e-06	1.188
0.0257366320724	0.00207802587573	0.000138040632143	0.00209723737545	0.000137918108743	1.92114997201e-05	5.81475736475e-06	1.206
0.0261207464079	0.00188599483146	0.000131529452063	0.00190852150801	0.000131258252041	2.25266765459e-05	8.44203951866e-06	1.224
0.0265048600988	0.00154212499058	0.000119011326854	0.00156698709565	0.000118666435633	2.48621050695e-05	9.05389273692e-06	1.242
0.0268889731358	0.00121885734127	0.000105525433555	0.00123809725557	0.000105306360648	1.92399142936e-05	6.79614110405e-06	1.26
0.0272730855093	0.00101364255156	9.60535069631e-05	0.00102784318639	9.58469584981e-05	1.42006348283e-05	6.29577212017e-06	1.278
0.0276571972099	0.00092910001097	9.17837069292e-05	0.000942480477816	9.16528479507e-05	1.33804668463e-05	4.89942039456e-06	1.296
0.028041308228	0.000782109577539	8.43424430143e-05	0.000796400233032	8.40854583511e-05	1.42906554929e-05	6.57901113364e-06	1.314
0.0284254185543	0.000630184600651	7.56315192622e-05	0.000643872234791	7.54126336266e-05	1.368763414e-05	5.74990394821e-06	1.332
0.0288095281792	0.000481828778314	6.63187585554e-05	0.00049646541922	6.60671845256e-05	1.46366409061e-05	5.77103675233e-06	1.35
0.0291936370933	0.000363119398031	5.84777513274e-05	0.000381322030165	5.77619173268e-05	1.82026321339e-05	9.12185874928e-06	1.368
0.029577745287	0.000350374264971	5.71705975435e-05	0.00036932057022	5.67091002428e-05	1.89463052485e-05	7.24949468118e-06	1.386
0.0299618527509	0.000306849019804	5.36216189463e-05	0.000326420471797	5.32295147759e-05	1.9571451993e-05	6.47277182814e-06	1.404
0.0303459594756	0.000272647345801	5.03192149308e-05	0.000288360217035	4.99273147334e-05	1.57128712341e-05	6.2679051334e-06	1.422
0.0307300654515	0.0002806433737	5.00081466459e-05	0.000288740875725	4.98470190074e-05	8.09750202557e-06	4.01116280352e-06	1.44
0.0311141706692	0.000329578666348	5.37694369104e-05	0.000336364390538	5.36893104289e-05	6.78572418947e-06	2.9343297924e-06	1.458
0.0314982751191	0.000394295923703	6.00838706461e-05	0.000415532252774	5.95281484475e-05	2.12363290707e-05	8.15297824337e-06	1.476
0.0318823787919	0.0004262317144	6.25278980848e-05	0.000451839803886	6.1942382153e-05	2.56080894862e-05	8.53693927069e-06	1.494
0.032266481678	0.000482445856994	6.55720955223e-05	0.00050273486934	6.52161974057e-05	2.02890123461e-05	6.82255869301e-06	1.512
0.0326505837679	0.00057875256497	7.15444193533e-05	0.000601110709272	7.11801428015e-05	2.23581443021e-05	7.21049314282e-06	1.53
0.0330346850522	0.000602848580995	7.2555801078e-05	0.000621814917137	7.22327207597e-05	1.89663361415e-05	6.83946794113e-06	1.548
0.0334187855215	0.000594899379722	7.18206048699e-05	0.000612495006462	7.15311629295e-05	1.759562674e-05	6.44142948661e-06	1.566
0.0338028851661	0.00068866973274	7.67007044347e-05	0.000703413118492	7.65150548598e-05	1.47433857522e-05	5.33333297163e-06	1.584
0.0341869839767	0.000739171457795	7.88940659172e-05	0.000748817824081	7.87796494377e-05	9.6463662859e-06	4.24740761266e-06	1.602
0.0345710819438	0.000732177289897	7.81999607409e-05	0.000739548347892	7.8134558753e-05	7.37105799537e-06	3.19759102342e-06	1.62
0.0349551790579	0.000790092229597	8.14930033824e-05	0.000804012159986	8.13525655354e-05	1.39199303885e-05	4.78222553781e-06	1.638
0.0353392753095	0.000823956819849	8.34124680197e-05	0.000843359011622	8.31988190061e-05	1.9402191773e-05	5.96626659819e-06	1.656
0.0357233706891	0.000863096756637	8.49487717909e-05	0.000878952367705	8.47918915155e-05	1.58556110681e-05	5.16032576519e-06	1.674
0.0361074651873	0.000846701784069	8.34951671186e-05	0.000854336824488	8.341634845e-05	7.63504041946e-06	3.62708470056e-06	1.692
0.0364915587945	0.000802924326808	8.07024363539e-05	0.000803485107941	8.07010692682e-05	5.60781132871e-07	4.69736551002e-07	1.71
0.0368756515014	0.000794740651617	8.04324348045e-05	0.000801552432105	8.03671117795e-05	6.81178048757e-06	3.24097405029e-06	1.728
0.0372597432984	0.000761086397477	7.8985402003e-05	0.00077403590451	7.87933419797e-05	1.29495070331e-05	5.50481509749e-06	1.746
0.0376438341761	0.000659864433233	7.36631962908e-05	0.000675141334393	7.34717453964e-05	1.52769011601e-05	5.30745854362e-06	1.764
0.0380279241249	0.000575979577036	6.91930275996e-05	0.000595249074469	6.89028047655e-05	1.9269497433e-05	6.3307632918e-06	1.782
0.0384120131354	0.00052256598689	6.58180788753e-05	0.000540523053673	6.55724028724e-05	1.79570667831e-05	5.68150405818e-06	1.8
0.0387961011982	0.000458720358081	6.11557037115e-05	0.000469815776099	6.10157927132e-05	1.10954180177e-05	4.13438460106e-06	1.818
0.0391801883037	0.000417259024782	5.88718665468e-05	0.000434358647241	5.85656080793e-05	1.70996224582e-05	5.99718442313e-06	1.836
0.0395642744424	0.000401194779866	5.84164938568e-05	0.000424684288796	5.78352315837e-05	2.34895089295e-05	8.22026411894e-06	1.854
0.039948359605	0.000364997797912	5.54142831477e-05	0.000385214380514	5.4954325938e-05	2.02165826019e-05	7.12494473431e-06	1.872
0.0403324437819	0.000258516164384	4.74123873767e-05	0.000280300610392	4.67742070022e-05	2.17844460076e-05	7.75293725478e-06	1.89
0.0407165269636	0.000167691146366	3.89300328662e-05	0.000188073854168	3.82267626977e-05	2.0382707802e-05	7.36627942855e-06	1.908
0.0411006091406	0.00012411722071	3.36640298311e-05	0.000140837327716	3.30213435747e-05	1.67201070067e-05	6.54658483405e-06	1.926
0.0414846903036	9.59430735724e-05	2.99257530076e-05	0.000110870065741	2.92508596816e-05	1.49269921688e-05	6.31964405331e-06	1.944
0.0418687704429	6.48786533814e-05	2.65548183065e-05	8.46243934641e-05	2.54978916654e-05	1.97457400827e-05	7.41727011171e-06	1.962
0.0422528495492	5.50628554702e-05	2.5483586425e-05	7.79881333388e-05	2.44151019151e-05	2.29252778686e-05	7.30177893092e-06	1.98
0.0426369276129	5.6583354173e-05	2.46690915862e-05	7.51083408159e-05	2.39115443856e-05	1.85249866428e-05	6.066475483e-06	1.998
0.0430210046247	7.57067071073e-05	2.62000381587e-05	8.78783397653e-05	2.58180230202e-05	1.2171632658e-05	4.45776702421e-06	2.016
0.0434050805749	8.79306478563e-05	2.73963291515e-05	9.75962735634e-05	2.71429405018e-05	9.66562570706e-06	3.7174765491e-06	2.034
0.0437891554541	0.000100006316264	2.93573974352e-05	0.000111650207329	2.89778643261e-05	1.16438910649e-05	4.70533349171e-06	2.052
0.0441732292529	0.000149104657866	3.55726190277e-05	0.000165081255225	3.51545809578e-05	1.59765973598e-05	5.43752353294e-06	2.07
0.0445573019617	0.000211537864574	4.16546086494e-05	0.000227602501372	4.12301854745e-05	1.60646367978e-05	5.93112362668e-06	2.088
0.0449413735712	0.000203084277901	3.99684635194e-05	0.000212600904636	3.97984684019e-05	9.51662673508e-06	3.68238902952e-06	2.106
0.0453254440717	0.000214361972961	4.04240639311e-05	0.000219242973628	4.03351309099e-05	4.88100066702e-06	2.67995507281e-06	2.124
0.0457095134539	0.000319460922584	4.9050574452e-05	0.000324164059027	4.8982760595e-05	4.70313644226e-06	2.57837517883e-06	2.142
0.0460935817083	0.000348181507969	5.14158400672e-05	0.000356592542702	5.1289553293e-05	8.41103473302e-06	3.60143482777e-06	2.16
0.0464776488253	0.000338203126938	5.07541261122e-05	0.000347844967913	5.05783412475e-05	9.6418409756e-06	4.22051111417e-06	2.178
0.0468617147956	0.000390812243065	5.47326924137e-05	0.000405261686468	5.44940273426e-05	1.44494434027e-05	5.10574214406e-06	2.196
0.0472457796096	0.000468770924802	5.97426246778e-05	0.000484852960906	5.94808677129e-05	1.60820361046e-05	5.58637445103e-06	2.214
0.0476298432578	0.0005170869839	6.19084518469e-05	0.000525516581862	6.18077538091e-05	8.42959796142e-06	3.52958625928e-06	2.232
0.0480139057309	0.000518380388521	6.17084559759e-05	0.000523915437625	6.16408096033e-05	5.53504910396e-06	2.88862084234e-06	2.25
0.0483979670192	0.000479143892367	5.94113287671e-05	0.000486362345207	5.93318589556e-05	7.21845283994e-06	3.07188846599e-06	2.268
0.0487820271134	0.000485070378423	6.02086636328e-05	0.00049903186391	6.00296345838e-05	1.39614854871e-05	4.6396280231e-06	2.286
0.0491660860039	0.000522194284013	6.26578028683e-05	0.000540472820703	6.23936533979e-05	1.827853669e-05	5.74737122103e-06	2.304
0.0495501436813	0.000543172133937	6.36463438692e-05	0.000558951601481	6.33448717272e-05	1.57794675441e-05	6.18743192127e-06	2.322
0.049934200136	0.000527347286572	6.21935169896e-05	0.000537995863522	6.20252014554e-05	1.06485769503e-05	4.57252008839e-06	2.34
0.0503182553588	0.000485078988871	5.96167124707e-05	0.000496467910554	5.94730953291e-05	1.13889216834e-05	4.13561818628e-06	2.358
0.0507023093399	0.000477092109225	5.9552703375e-05	0.000495187985122	5.93014618903e-05	1.80958758968e-05	5.46453080754e-06	2.376
0.05108636207	0.000462785537905	5.87159465439e-05	0.000481684929913	5.83966818943e-05	1.88993920076e-05	6.11472994366e-06	2.394
0.0514704135397	0.000427433815382	5.61490087396e-05	0.000442858245092	5.59122440678e-05	1.542442971e-05	5.15093639493e-06	2.412
0.0518544637393	0.000402368950527	5.4104720432e-05	0.000413316547253	5.39375394982e-05	1.0947596726e-05	4.25001246019e-06	2.43
0.0522385126595	0.000348886027842	5.02792313511e-05	0.000358470652351	5.01356690526e-05	9.58462450888e-06	3.79681365155e-06	2.448
0.0526225602907	0.000295483309691	4.62118027447e-05	0.000304092367131	4.60721819375e-05	8.60905744018e-06	3.5895354072e-06	2.466
0.0530066066236	0.000262266669869	4.38652014862e-05	0.000273443857275	4.36089709457e-05	1.11771874067e-05	4.73429556304e-06	2.484
0.0533906516485	0.000219611537963	4.06756498428e-05	0.000234695836336	4.03486447091e-05	1.50842983734e-05	5.1473644008e-06	2.502
0.0537746953561	0.00018317254009	3.76877997233e-05	0.00020108886875	3.73017945917e-05	1.79163286603e-05	5.3801829172e-06	2.52
0.0541587377369	0.000155922385061	3.46006693109e-05	0.000170205479556	3.4290225699e-05	1.42830944944e-05	4.62457979473e-06	2.538
0.0545427787813	0.000136555667384	3.13509070812e-05	0.000141797408113	3.12546619992e-05	5.24174072918e-06	2.45468493574e-06	2.556
0.05492681848	0.000145595441615	3.22942200697e-05	0.000150945307282	3.21685051105e-05	5.34986566755e-06	2.84674004251e-06	2.574
0.0553108568234	0.000153968882716	3.37929978317e-05	0.000164609886976	3.35586992494e-05	1.06410042595e-05	3.97245605914e-06	2.592
0.055694893802	0.000135241342716	3.19419941635e-05	0.000146746092856	3.16557107204e-05	1.15047501408e-05	4.26696261097e-06	2.61
0.0560789294064	0.000137132271151	3.22659758942e-05	0.000150187202872	3.19734712183e-05	1.30549317207e-05	4.33478242306e-06	2.628
0.0564629636272	0.000152206973286	3.52674449705e-05	0.000175169933076	3.44608416674e-05	2.29629597899e-05	7.49953774089e-06	2.646
0.0568469964547	0.000180135612269	3.80428489998e-05	0.000206690393762	3.73567172747e-05	2.65547814927e-05	7.19263751937e-06	2.664
0.0572310278797	0.000190740226851	3.7866928752e-05	0.000208850921034	3.74928190711e-05	1.81106941824e-05	5.30969031236e-06	2.682
0.0576150578925	0.000203919264331	3.88372803056e-05	0.000219535015305	3.8373478972e-05	1.56157509741e-05	5.9841835798e-06	2.7
0.0579990864837	0.000228557738537	4.0298199327e-05	0.000239680373829	4.00310348927e-05	1.11226352917e-05	4.63261420971e-06	2.718
0.0583831136438	0.000282481751746	4.41161866756e-05	0.000290627199475	4.40077620703e-05	8.14544772987e-06	3.0910846576e-06	2.736
0.0587671393634	0.000389289210433	5.17029703108e-05	0.000399833277571	5.15462635672e-05	1.05440671376e-05	4.02241857842e-06	2.754
0.059151163633	0.000457178044511	5.5526031329e-05	0.000463827029062	5.54483202783e-05	6.6489845513e-06	2.9366534477e-06	2.772
0.0595351864431	0.000509033821719	5.83511402328e-05	0.000514254089793	5.82970148027e-05	5.22026807446e-06	2.51269408351e-06	2.79
