#Loaded raw file: ES_S15_30K_FC_7Oe_Remanence_tranformed_angs_du_masked_qz_I.xy
#Loaded data range: 0.005 .. inf
#Divided data by: 4.03856132933
#Performed footprint correction
#Beamwidth: 1.0
#Samplelength: 14.0
#Wavelength: 5.1386
#q / A-1 	 I / a.u. 	 sI / a.u. 
0.00507734505523	0.956471633156	0.0309310771031
0.00541583418006	0.956957737064	0.0256002082082
0.0057543231993	0.985901745809	0.0249429674507
0.00609281210636	1.0	0.0220007056024
0.00643130089464	0.986956923368	0.0190710302081
0.00676978955753	0.96140000989	0.0179711193468
0.00710827808845	0.948945352082	0.0162192622044
0.00744676648079	0.928552070879	0.015881193413
0.00778525472794	0.892430806492	0.0145725352899
0.00812374282332	0.856621536722	0.0199766338121
0.00846223076033	0.783556815426	0.0215360866314
0.00880071853236	0.633422267449	0.0123281651519
0.00913920613281	0.500944769048	0.0106015507232
0.00947769355509	0.407901106698	0.00890865624997
0.0098161807926	0.375940075397	0.00974784384363
0.0101546678387	0.363400522349	0.00844020201118
0.0104931546869	0.346918460257	0.00864007425425
0.0108316413305	0.383450506529	0.00947432223918
0.0111701277629	0.482693897124	0.00978914504567
0.0115086139776	0.602527542867	0.0112784840173
0.0118470999679	0.675653590374	0.0143195839932
0.0121855857272	0.681148759266	0.0142122219212
0.012524071249	0.577643035379	0.0136246734166
0.0128625565266	0.421154728838	0.00949703230554
0.0132010415534	0.267719351777	0.00626194234946
0.0135395263229	0.184334854593	0.00604266869329
0.0138780108284	0.0979796828167	0.00282678043567
0.0142164950634	0.0609204578993	0.00233681841827
0.0145549790212	0.0405586054837	0.00178795451531
0.0148934626952	0.0299052812717	0.0016655848453
0.0152319460789	0.0201792507074	0.00136837246262
0.0155704291656	0.0137927025965	0.00135180734348
0.0159089119488	0.0103365544458	0.00106368618386
0.0162473944218	0.00942392841855	0.00106417772391
0.0165858765781	0.0123409695697	0.00102283133645
0.016924358411	0.0188005578123	0.00113911956096
0.017262839914	0.0297865575161	0.00129963512182
0.0176013210805	0.0459229590549	0.0014443268437
0.0179398019037	0.0599024484328	0.00180606162758
0.0182782823773	0.0667591323906	0.00191433306202
0.0186167624945	0.0647872504253	0.00186964342456
0.0189552422487	0.0544733395695	0.00163426179394
0.0192937216334	0.0369294175371	0.00124977129522
0.019632200642	0.0226820630989	0.000930811358623
0.0199706792678	0.0125429582865	0.000592540250167
0.0203091575043	0.00746693380435	0.000498680224533
0.0206476353448	0.00529853456928	0.000376705352603
0.0209861127829	0.00398602767999	0.000282845361403
0.0213245898117	0.00337583734299	0.000289009523931
0.0216630664249	0.0030673993867	0.000257246751589
0.0220015426157	0.00229657576101	0.000241419299181
0.0223400183776	0.00186945024467	0.000185488843588
0.0226784937039	0.00171631037247	0.000152105787748
0.0230169685881	0.0015309472642	0.000179233980793
0.0233554430236	0.00131382548493	0.000145545538478
0.0236939170038	0.00120449561653	0.000137372868537
0.0240323905221	0.0012115761582	0.000141593040179
0.0243708635718	0.00149894559507	0.000141601286381
0.0247093361464	0.00236226514667	0.000173517232259
0.0250478082392	0.0035791477502	0.000200586576767
0.0253862798438	0.00492886705526	0.000263148769294
0.0257247509534	0.00552819632431	0.000225653984386
0.0260632215616	0.00606922471536	0.000253761439977
0.0264016916616	0.00573042727409	0.000220860051152
0.0267401612468	0.00499654585067	0.000223649075599
0.0270786303108	0.00411150688066	0.000206556900962
0.0274170988469	0.00346699865155	0.000195591604669
0.0277555668484	0.00321903685619	0.000146543147808
0.0280940343089	0.00283796052562	0.000162840212187
0.0284325012216	0.00273669067632	0.000161026185417
0.02877096758	0.00236825763658	0.000146340293451
0.0291094333776	0.0022072516889	0.000121055017464
0.0294478986076	0.0022283064623	0.000117116078625
0.0297863632635	0.00201303399047	0.00013895184015
0.0301248273387	0.00181612791023	0.00012672456117
0.0304632908267	0.0018685946222	0.000127105492705
0.0308017537207	0.00199403264575	0.000133681925744
0.0311402160142	0.00250821503437	0.000143638174725
0.0314786777006	0.00302463505744	0.000154212203289
0.0318171387734	0.00365462949168	0.000170722861847
0.0321555992258	0.00469836430209	0.000158625255709
0.0324940590514	0.00554138018978	0.000181628680866
0.0328325182434	0.00642562389778	0.000216854384175
0.0331709767954	0.00731003301348	0.000193924313731
0.0335094347007	0.00718411244366	0.000199716884407
0.0338478919527	0.00667394967648	0.000201671731144
0.0341863485449	0.00617847359237	0.000179510927309
0.0345248044705	0.0052908078951	0.000161105542405
0.0348632597231	0.00431619528047	0.000144681561658
0.035201714296	0.00353818376676	0.000113072219883
0.0355401681826	0.00296484330087	0.000107554632069
0.0358786213764	0.00237042019166	0.000101273201085
0.0362170738706	0.00186425619041	8.14495654621e-05
0.0365555256588	0.00157499075903	7.12667910962e-05
0.0368939767344	0.00132443432319	7.78450484779e-05
0.0372324270906	0.00114546407225	5.92121899353e-05
0.037570876721	0.0010914473254	6.11653379204e-05
0.037909325619	0.00093789288818	4.71586873182e-05
0.0382477737778	0.000852066025724	4.89063691278e-05
0.0385862211911	0.000859122014517	5.3209588413e-05
0.038924667852	0.000892860924541	5.08741557313e-05
0.0392631137541	0.000827968983026	5.6546301011e-05
0.0396015588908	0.000885513510301	5.70459768014e-05
0.0399400032554	0.000997029953481	4.82518496263e-05
0.0402784468413	0.000990581349736	4.94629601966e-05
0.040616889642	0.000984499147139	4.94864269089e-05
0.0409553316508	0.000986451052321	5.87547374861e-05
0.0412937728612	0.000948343214498	4.91208690499e-05
0.0416322132666	0.000934400132309	5.60144839948e-05
0.0419706528603	0.00100770479499	6.47867293755e-05
0.0423090916358	0.000747911559631	4.76075261675e-05
0.0426475295864	0.00064661412956	3.82517642814e-05
0.0429859667056	0.00057568963363	3.50363895154e-05
0.0433244029868	0.000568234484275	3.79971955447e-05
0.0436628384234	0.00051819419024	3.93398076226e-05
0.0440012730087	0.000404425152565	3.39866748016e-05
0.0443397067361	0.00041752217675	3.07743319131e-05
0.0446781395992	0.000437448582358	2.79591554837e-05
0.0450165715912	0.000401134455968	2.92110866763e-05
0.0453550027056	0.000415784384797	3.50632602782e-05
0.0456934329358	0.00042796748585	3.1349537694e-05
0.0460318622752	0.000522258841233	4.0067319257e-05
0.0463702907172	0.00050890564485	3.84928160096e-05
0.0467087182551	0.000513323270196	3.40773587128e-05
0.0470471448825	0.000463440693016	3.20119972626e-05
0.0473855705926	0.000587804508025	3.62342354699e-05
0.0477239953789	0.000683795916458	3.9788566985e-05
0.0480624192348	0.000755998914789	3.69608980135e-05
0.0484008421538	0.000853930337725	4.23028800333e-05
0.0487392641291	0.000815299627726	3.9627711093e-05
0.0490776851542	0.000830696890322	3.73066951917e-05
0.0494161052225	0.000889884826006	4.8723695062e-05
0.0497545243275	0.000913972074385	4.49925941002e-05
0.0500929424624	0.000902845680118	3.88111522727e-05
0.0504313596208	0.000905621789247	3.7652551928e-05
0.0507697757959	0.00083430611598	3.97853463868e-05
0.0511081909813	0.000746513023605	3.55060149947e-05
0.0514466051703	0.000742595120148	3.55751073098e-05
0.0517850183564	0.000778605142038	4.38434423611e-05
0.0521234305328	0.000672886124848	3.42713158523e-05
0.0524618416931	0.000593261745227	3.17838259487e-05
0.0528002518306	0.00056806582323	3.35639256924e-05
0.0531386609387	0.000544873641049	2.84488727291e-05
0.0534770690109	0.000535204443753	3.24112371941e-05
0.0538154760405	0.000513695571378	3.2549358768e-05
0.054153882021	0.000513567805156	2.74058487319e-05
0.0544922869457	0.000531133303898	3.11969680752e-05
0.054830690808	0.000484793696881	3.19725083395e-05
0.0551690936014	0.000494110880879	2.93774471636e-05
0.0555074953193	0.000520829334333	2.98486162851e-05
0.0558458959549	0.000470628131096	2.81216280439e-05
0.0561842955019	0.000498352439612	3.06605580115e-05
0.0565226939535	0.000478654150942	2.99135335482e-05
0.0568610913032	0.000483496478975	2.90011454014e-05
0.0571994875443	0.000517241618692	3.10938694609e-05
0.0575378826703	0.000499679671692	3.01237704225e-05
0.0578762766746	0.00047002278703	2.74774805181e-05
0.0582146695505	0.000433934990149	2.39379910275e-05
0.0585530612915	0.000376014153234	2.31832018861e-05
0.058891451891	0.000353922337931	2.48766848501e-05
0.0592298413424	0.000345518532223	2.32050803507e-05
0.059568229639	0.000363242991529	2.50574173721e-05
0.0599066167744	0.000305009317139	1.94105208986e-05
0.0602450027418	0.000247840456765	1.91957658608e-05
0.0605833875347	0.00027407964942	2.02450768487e-05
0.0609217711465	0.000226177990139	1.88663516215e-05
0.0612601535707	0.000198159769095	1.66825921458e-05
0.0615985348005	0.000114699109342	1.52236894636e-05
0.0619369148294	0.000115338751042	1.40092640735e-05
0.0622752936508	0.00014574935108	1.43081790546e-05
0.0626136712582	0.000137832665388	1.44230107081e-05
0.0629520476448	0.000104161945514	1.33898687743e-05
0.0632904228042	7.25166295546e-05	1.06154865458e-05
0.0636287967297	9.17321072465e-05	1.12230752816e-05
0.0639671694147	5.22457643549e-05	1.04533904329e-05
0.0643055408527	4.67935784282e-05	9.97465779315e-06
0.064643911037	6.4419347791e-05	1.02202405716e-05
0.064982279961	3.78900521662e-05	1.05536637366e-05
0.0653206476181	6.15431045027e-05	1.08565455778e-05
0.0656590140018	5.76739105518e-05	1.11994220463e-05
0.0659973791054	7.26713201572e-05	1.10991080927e-05
0.0663357429224	7.51846652176e-05	1.11385157071e-05
0.0666741054461	6.61698418881e-05	9.61606703943e-06
0.06701246667	9.54983533953e-05	9.80408722708e-06
0.0673508265875	7.19500869809e-05	9.64134365521e-06
0.0676891851919	0.000115735978178	1.17208942223e-05
0.0680275424766	0.000104853421849	1.06638371321e-05
0.0683658984352	9.299965286e-05	1.18119211511e-05
0.0687042530609	9.47949997266e-05	9.9407261806e-06
0.0690426063472	8.33649662989e-05	1.10093460816e-05
0.0693809582874	7.74282516708e-05	1.02416006897e-05
0.0697193088751	8.23590500859e-05	1.07096137166e-05
0.0700576581035	8.39076928753e-05	9.49511992508e-06
0.0703960059661	6.80887694111e-05	1.08177931321e-05
0.0707343524563	7.71185691949e-05	1.03458118723e-05
0.0710726975675	8.53821923727e-05	9.89923637877e-06
0.0714110412932	0.00010042159711	1.20118990666e-05
0.0717493836266	8.24519188015e-05	9.7387985577e-06
0.0720877245612	8.6909538874e-05	9.92577116762e-06
0.0724260640904	5.85312262487e-05	8.1380480954e-06
0.0727644022077	8.68276167377e-05	9.55917918238e-06
0.0731027389064	9.33721500616e-05	1.04753376953e-05
0.0734410741799	7.70888746824e-05	9.18681546688e-06
0.0737794080216	9.03492930563e-05	9.12742024162e-06
0.074117740425	9.13552836819e-05	1.12103803148e-05
0.0744560713834	9.37413421925e-05	1.00948255853e-05
0.0747944008902	8.30559079283e-05	9.46248779853e-06
0.0751327289389	7.21527342096e-05	8.38463299801e-06
0.0754710555228	6.95417462834e-05	8.79435969781e-06
0.0758093806354	6.80632134812e-05	1.04374227791e-05
0.07614770427	7.55577247219e-05	9.33149695132e-06
0.0764860264201	4.1359558509e-05	8.58975291677e-06
0.0768243470791	5.57611814358e-05	8.49941417085e-06
0.0771626662403	4.33045508297e-05	6.86987780609e-06
0.0775009838972	4.35141094846e-05	7.93116576718e-06
0.0778393000432	2.66647132589e-05	6.11459626951e-06
0.0781776146717	3.96383351214e-05	7.26773977613e-06
0.0785159277761	3.97032308814e-05	6.74516221727e-06
0.0788542393497	3.73118912172e-05	6.37964911169e-06
0.0791925493861	2.59109413817e-05	6.07534935379e-06
0.0795308578785	2.60516610807e-05	7.0764448211e-06
0.0798691648205	1.81534355048e-05	5.66677313067e-06
0.0802074702053	3.04913926519e-05	5.80787792785e-06
0.0805457740265	1.45551901626e-05	4.5700243568e-06
0.0808840762774	2.64623934663e-05	5.05053880915e-06
0.0812223769514	2.14798742428e-05	5.40070303106e-06
0.081560676042	2.7658176013e-05	5.32623700336e-06
0.0818989735424	2.19564972627e-05	5.80717929103e-06
0.0822372694463	2.52760942394e-05	4.7565843543e-06
0.0825755637468	2.42925567123e-05	5.57018231308e-06
0.0829138564375	3.14044018834e-05	5.60549954089e-06
0.0832521475118	2.86185803423e-05	0.0
0.083590436963	3.01100101799e-05	5.07582934551e-06
0.0839287247846	2.57826143104e-05	4.64723042582e-06
0.0842670109699	2.95486362369e-05	5.24672542339e-06
0.0846052955124	1.57073415227e-05	4.1600191784e-06
0.0849435784055	1.55332313469e-05	4.57921033069e-06
0.0852818596426	1.93621071775e-05	4.9378139704e-06
0.085620139217	2.21979148624e-05	4.79844713741e-06
0.0859584171223	2.29471536151e-05	4.75239284246e-06
0.0862966933517	1.81613449422e-05	4.9699599541e-06
0.0866349678988	2.90413319389e-05	5.73643433549e-06
0.0869732407568	1.77137515163e-05	4.60417381473e-06
0.0873115119193	2.49265692006e-05	4.84572565244e-06
0.0876497813796	1.31340435028e-05	4.57428792335e-06
0.0879880491311	5.20902726442e-05	1.26320333723e-05
0.0883263151672	4.16004671886e-05	1.23394605363e-05
0.0886645794814	3.81447771729e-05	1.21021490232e-05
0.089002842067	4.91861569352e-05	1.18188620291e-05
0.0893411029174	5.05447771013e-05	1.16343222991e-05
0.0896793620261	4.09700016759e-05	1.18340010368e-05
0.0900176193865	3.89073832341e-05	1.19962440372e-05
0.0903558749919	4.33481548872e-05	1.14785244967e-05
0.0906941288358	3.5054116125e-05	1.08387575068e-05
0.0910323809115	2.66410702918e-05	1.06965692455e-05
0.0913706312125	3.35439951493e-05	1.07336257381e-05
0.0917088797322	4.11412647277e-05	1.08208416626e-05
0.092047126464	3.53166100417e-05	1.06707344198e-05
0.0923853714013	3.09698058193e-05	1.02735781313e-05
0.0927236145375	4.25618242512e-05	1.11419270408e-05
0.093061855866	4.11826477362e-05	1.16715594698e-05
0.0934000953802	2.75084194556e-05	1.0636215779e-05
0.0937383330735	2.87906244281e-05	9.89714357239e-06
0.0940765689394	3.65909247685e-05	9.73632799875e-06
0.0944148029712	3.52333879269e-05	8.79264267524e-06
0.0947530351623	3.1263880505e-05	8.43720453646e-06
0.0950912655061	2.93632523117e-05	8.89628616512e-06
0.0954294939961	2.82686653018e-05	9.23312359178e-06
0.0957677206257	2.43787599115e-05	8.85780848363e-06
0.0961059453882	1.74142250482e-05	7.47557393867e-06
0.096444168277	1.64206701476e-05	6.63766858076e-06
0.0967823892857	2.36372072961e-05	7.0432505857e-06
0.0971206084075	2.43825123463e-05	7.42708752228e-06
0.0974588256359	2.06068881054e-05	7.91840900134e-06
0.0977970409643	1.5777404903e-05	7.68220539132e-06
0.0981352543861	1.1902903643e-05	7.20959077892e-06
0.0984734658947	1.42051628923e-05	7.78800369335e-06
0.0988116754835	9.0873818094e-06	6.69748117318e-06
0.0991498831459	7.53157878977e-06	5.00834903627e-06
0.0994880888754	1.37514765187e-05	5.46674133088e-06
0.0998262926652	1.80065640988e-05	6.19390548156e-06
0.100164494509	1.99921814977e-05	7.33187630093e-06
0.1005026944	1.55909511887e-05	6.92572445228e-06
0.100840892331	1.08159142153e-05	6.32175315478e-06
0.101179088297	9.87018396191e-06	7.35325998093e-06
0.10151728229	8.39873138166e-06	6.96253414335e-06
0.101855474304	8.26497172991e-06	5.95325794727e-06
0.102193664332	1.34917240593e-05	6.56382641789e-06
0.102531852368	2.2257775175e-05	7.26249333723e-06
0.102870038405	2.44300934694e-05	7.15172021856e-06
0.103208222437	2.1717339846e-05	7.0516522715e-06
0.103546404456	1.89944217746e-05	6.62489917048e-06
0.103884584457	1.2916197225e-05	6.02359550253e-06
0.104222762433	1.3472850945e-05	5.55271514687e-06
0.104560938376	1.43711995902e-05	4.82655383249e-06
0.104899112281	7.67405444128e-06	4.17736302549e-06
0.105237284141	8.99148492516e-06	4.67426247723e-06
0.10557545395	8.69303605517e-06	4.6698574092e-06
0.1059136217	2.49838220108e-06	3.10737680165e-06
0.106251787385	1.53887187731e-06	1.96546225987e-06
0.106589950999	3.20335898701e-07	2.08072587216e-06
0.106928112535	-8.05351375697e-07	2.18549426108e-06
0.107266271986	-2.09799464684e-07	1.58061079279e-06
0.107604429346	5.3872861142e-07	1.6636232463e-06
0.107942584608	6.87938364624e-06	3.59224027044e-06
0.108280737766	8.93548923152e-06	3.89260483542e-06
0.108618888813	5.95732082019e-06	3.08452265858e-06
0.108957037742	5.81640195161e-06	3.19971969593e-06
0.109295184547	4.13196600279e-06	3.25860053687e-06
0.109633329221	1.06350529014e-06	2.71659679188e-06
0.109971471758	-1.91348141355e-07	1.25354338633e-06
0.110309612151	3.6484434203e-07	1.13657690017e-06
0.110647750394	8.25300525366e-07	1.7496569161e-06
0.110985886479	1.42370049417e-06	1.99911621821e-06
0.111324020401	7.76348945284e-07	1.51462008705e-06
0.111662152152	1.00884577274e-06	1.46689449989e-06
0.112000281726	4.15836292725e-06	2.58822538641e-06
0.112338409117	4.41776386426e-06	2.66080145103e-06
0.112676534318	3.29553061992e-06	2.41372653268e-06
0.113014657322	3.16198166264e-06	2.57065230537e-06
0.113352778123	1.56937703e-06	1.94339224559e-06
0.113690896714	-8.04054257296e-07	1.97869565974e-06
0.114029013088	-9.06362394798e-07	1.81217605261e-06
0.11436712724	-4.59052263192e-07	1.16450333929e-06
0.114705239161	-4.18165673668e-08	1.06125123823e-06
0.115043348847	2.19775722749e-06	2.05455995172e-06
0.11538145629	3.19559531931e-06	2.13541321758e-06
0.115719561483	1.7702902616e-06	1.88972273151e-06
0.11605766442	2.51865308398e-06	2.77151440887e-06
0.116395765095	2.80995510921e-06	3.09551174584e-06
0.1167338635	9.65260900517e-07	1.95723940742e-06
0.11707195963	-3.39698135872e-07	1.9074802434e-06
0.117410053477	1.43685719651e-06	1.69390162125e-06
0.117748145036	2.56870540351e-06	1.89529717998e-06
0.118086234298	3.11412650828e-06	2.18436123919e-06
0.118424321259	2.98972754117e-06	2.28728884546e-06
0.118762405911	2.44622638121e-06	2.00921976462e-06
0.119100488247	1.63222037392e-06	1.50231418706e-06
0.119438568262	5.54791434768e-07	8.98045988918e-07
0.119776645948	-1.01819048427e-06	1.59013821944e-06
0.120114721299	1.77572589226e-07	1.86207028979e-06
0.120452794308	1.28622422165e-06	1.32594858956e-06
0.120790864969	4.82581505318e-07	8.10940027728e-07
0.121128933275	6.79189740214e-07	9.60519342026e-07
0.12146699922	4.23010616102e-07	7.56850111354e-07
0.121805062797	0.0	0.0
0.122143123999	1.89398924189e-06	1.59704678626e-06
0.122481182819	3.1988764512e-06	2.1895411048e-06
0.122819239252	9.14600513705e-07	2.41730352107e-06
0.123157293291	-1.0025751381e-06	2.76262428105e-06
0.123495344928	0.0	0.0
0.123833394158	6.00268727096e-07	8.9330708563e-07
0.124171440973	-4.17598570277e-07	1.86731206321e-06
0.124509485368	-1.95147387651e-07	1.62243870994e-06
0.124847527336	1.55281753328e-06	1.49975681337e-06
0.125185566869	2.90115351882e-06	1.95378388993e-06
0.125523603962	2.06959035919e-06	2.00985141818e-06
0.125861638608	-2.43349992559e-07	2.19210911792e-06
0.1261996708	2.05855261303e-07	2.09349792904e-06
0.126537700532	6.32743252021e-07	9.07553197236e-07
