#Loaded raw file: ES_S15_300K_7Oe_virgin_tranformed_angs_du_masked_qz_I.xy
#Loaded data range: 0.005 .. inf
#Divided data by: 3.50514095903
#Performed footprint correction
#Beamwidth: 1.0
#Samplelength: 14.0
#Wavelength: 5.1386
#q / A-1 	 I / a.u. 	 sI / a.u. 
0.00503503390753	0.931505938775	0.0189810759547
0.00533121190849	0.995829620411	0.0225764694409
0.00562738982987	0.989420964752	0.0176061700228
0.00592356766726	1.0	0.0158585961666
0.00621974541624	0.99177634463	0.0147756611299
0.00651592307237	0.960212218076	0.0156308323478
0.00681210063125	0.930464703919	0.0141492049248
0.00710827808845	0.891757037556	0.0146265328163
0.00740445543955	0.865124238902	0.0165964706945
0.00770063268013	0.829811515204	0.0122201071993
0.00799680980576	0.790758290804	0.0135112249991
0.00829298681204	0.718538339297	0.0136874919096
0.00858916369453	0.606162198903	0.0130541149734
0.00888534044881	0.47991488417	0.0106366526732
0.00918151707047	0.393724508098	0.00959190622919
0.00947769355509	0.370855567813	0.00857718047955
0.00977386989824	0.36743897173	0.00690644381736
0.0100700460955	0.366966054665	0.00664743978598
0.0103662221425	0.367154417353	0.00715840879456
0.0106623980347	0.400513547558	0.00733889988524
0.0109585737678	0.479425433233	0.00834155835067
0.0112547493373	0.564523524976	0.0101942172684
0.0115509247388	0.623759535517	0.0119095113698
0.0118470999679	0.621065427308	0.0129539787687
0.0121432750201	0.553750528012	0.0124029981634
0.0124394498912	0.436931012146	0.00969533040607
0.0127356245765	0.304074285119	0.00647971462048
0.0130317990717	0.190143974302	0.00437639857206
0.0133279733725	0.115153244171	0.00321517205818
0.0136241474743	0.0639632416795	0.00256590021105
0.0139203213727	0.0396110249117	0.00197237491095
0.0142164950634	0.0297403986988	0.00166226958105
0.0145126685418	0.0226565795791	0.00144011423985
0.0148088418037	0.0166661231066	0.00127970729275
0.0151050148445	0.0117086028891	0.00125299575308
0.0154011876598	0.00978708452146	0.00112565333523
0.0156973602453	0.00949377369816	0.00120986935987
0.0159935325964	0.0119759046281	0.00119205343071
0.0162897047088	0.0176599922149	0.00124346622863
0.0165858765781	0.027515374742	0.00138891490269
0.0168820481998	0.042386972412	0.00162296725078
0.0171782195696	0.0590303378881	0.00173169855707
0.0174743906829	0.0706366391893	0.00190394209886
0.0177705615354	0.0711963576449	0.00197224505001
0.0180667321227	0.0633209692775	0.00193675427923
0.0183629024402	0.0503666703979	0.00172344699378
0.0186590724837	0.0341190836054	0.00142032890082
0.0189552422487	0.0204955474953	0.00102816822194
0.0192514117308	0.0110942584496	0.000782771489986
0.0195475809255	0.00695298658376	0.000639923346308
0.0198437498284	0.00618138508692	0.000506270450399
0.0201399184351	0.00527572872922	0.000470887999121
0.0204360867413	0.00412608287245	0.000412190709725
0.0207322547423	0.00329515936278	0.000321266030711
0.021028422434	0.00277369870926	0.000298476682282
0.0213245898117	0.00283007672218	0.000276626277969
0.0216207568712	0.00210091697366	0.000227917312946
0.0219169236079	0.00140143500153	0.00023272515868
0.0222130900176	0.00128668494568	0.000206237850319
0.0225092560956	0.00140135202096	0.000221529176973
0.0228054218377	0.00130788208604	0.000196340073282
0.0231015872393	0.00126349253284	0.000192305140675
0.0233977522962	0.00133286711281	0.000185793347034
0.0236939170038	0.00206367932678	0.000212345917666
0.0239900813578	0.00267161035632	0.000234605856413
0.0242862453536	0.00355095778511	0.000217508473478
0.024582408987	0.00427439388586	0.000220659899264
0.0248785722534	0.00475158764175	0.000265592618485
0.0251747351485	0.00473928167774	0.000236231016254
0.0254708976679	0.00470347268995	0.000264826773693
0.025767059807	0.00395616655033	0.000237541398793
0.0260632215616	0.00327258191357	0.000201427374214
0.0263593829271	0.0028779561751	0.000193008022617
0.0266555438991	0.00261695683377	0.000183337938633
0.0269517044733	0.0025764504324	0.000178781826137
0.0272478646453	0.00270651292523	0.000175970743007
0.0275440244105	0.00236795554167	0.000172628009058
0.0278401837645	0.00200022013022	0.000160540022472
0.0281363427031	0.00176988652071	0.000162878696641
0.0284325012216	0.00151242638279	0.00014973876321
0.0287286593158	0.00167132223239	0.000146974605063
0.0290248169811	0.00164363323878	0.000160337090133
0.0293209742133	0.00111687426277	0.00018091081072
0.0296171310077	0.00183541574632	0.000155588658343
0.0299132873601	0.00207766697905	0.000174166393966
0.030209443266	0.00233377923328	0.000177344719951
0.030505598721	0.0031507538946	0.000201926371956
0.0308017537207	0.0038342281547	0.000228603309167
0.0310979082606	0.0043111023553	0.000240717197238
0.0313940623363	0.00546062346801	0.000239069794742
0.0316902159434	0.00617816601011	0.000249727262287
0.0319863690775	0.00614375427575	0.000229977502689
0.0322825217342	0.00661644257872	0.000285939787255
0.032578673909	0.00633852748043	0.00025655830498
0.0328748255976	0.00561188952212	0.000263672855149
0.0331709767954	0.00477584478217	0.000224149070519
0.0334671274982	0.00421388618922	0.000211395977935
0.0337632777013	0.00370769289552	0.000194809096342
0.0340594274006	0.00280890723803	0.000170992915935
0.0343555765914	0.00256364541512	0.000190762208427
0.0346517252695	0.00256765189163	0.000171717714164
0.0349478734303	0.00188611532194	0.000119419470808
0.0352440210695	0.00187530460256	0.000130169695996
0.0355401681826	0.0013254355865	9.36359737234e-05
0.0358363147653	0.00127696522224	8.85387738449e-05
0.036132460813	0.00116271449328	8.97314013671e-05
0.0364286063214	0.00114816942409	8.48607455502e-05
0.0367247512861	0.000959166934297	7.99798269576e-05
0.0370208957026	0.000889322876695	8.517710299e-05
0.0373170395665	0.000742752539168	8.39985541947e-05
0.0376131828735	0.000772913534587	7.8025646553e-05
0.037909325619	0.000881217415381	7.50714809247e-05
0.0382054677986	0.000959475850983	7.22271448781e-05
0.038501609408	0.000860343316475	8.00163403866e-05
0.0387977504427	0.00121427816104	9.67033018626e-05
0.0390938908983	0.00117542400956	7.9075237096e-05
0.0393900307704	0.00103321570734	8.04267126955e-05
0.0396861700546	0.00116900970287	9.07372244764e-05
0.0399823087463	0.000979657763534	7.17910673013e-05
0.0402784468413	0.00102531105897	7.314604704e-05
0.0405745843351	0.00100341920368	7.21700391137e-05
0.0408707212232	0.000842217883822	6.30678185203e-05
0.0411668575013	0.000705826221083	5.8850553341e-05
0.041462993165	0.000637408113223	5.97872459493e-05
0.0417591282097	0.000542537667153	5.87969701281e-05
0.0420552626312	0.000561469024799	5.4621310093e-05
0.0423513964249	0.000306904383923	4.31874094281e-05
0.0426475295864	0.000411125612883	4.78780066069e-05
0.0429436621114	0.000388288940028	4.0104254881e-05
0.0432397939954	0.000295387003382	4.07725325738e-05
0.0435359252341	0.000310991413536	4.25180847769e-05
0.0438320558228	0.000348667976287	4.12820329982e-05
0.0441281857574	0.000321210387784	4.55878060342e-05
0.0444243150332	0.000389422373615	4.15576802472e-05
0.044720443646	0.000440555952624	4.63151663542e-05
0.0450165715912	0.000414873001398	4.78400472136e-05
0.0453126988646	0.000438686713843	4.58537763826e-05
0.0456088254615	0.000525729744606	4.82379310088e-05
0.0459049513778	0.000460550681552	4.36279137306e-05
0.0462010766088	0.000512622352932	4.9931713106e-05
0.0464972011502	0.000824967669159	6.12937204478e-05
0.0467933249976	0.000753825729782	5.15129164659e-05
0.0470894481465	0.000879645307667	6.94757011594e-05
0.0473855705926	0.000604036058798	5.18155671276e-05
0.0476816923314	0.000738733866324	6.02670388702e-05
0.0479778133584	0.000770945166607	5.61558755581e-05
0.0482739336694	0.000879084477884	6.25006666476e-05
0.0485700532598	0.000886347102873	6.91878204613e-05
0.0488661721252	0.00070042802433	5.50348701146e-05
0.0491622902612	0.000861304167557	6.67122478921e-05
0.0494584076635	0.000714909220385	5.58267619561e-05
0.0497545243275	0.000558194209754	4.74473109916e-05
0.0500506402488	0.000575840660389	4.69059182675e-05
0.0503467554231	0.00065303541401	4.49131997582e-05
0.0506428698459	0.000607413290077	4.44734663718e-05
0.0509389835128	0.000523981186345	4.3254439157e-05
0.0512350964193	0.000501627035186	3.82137991961e-05
0.0515312085611	0.000453746728898	3.82315773852e-05
0.0518273199338	0.000435390643469	3.30254924442e-05
0.0521234305328	0.000486757029013	4.28660223888e-05
0.0524195403539	0.000441870474373	3.82837102118e-05
0.0527156493925	0.000467831925648	4.1827580273e-05
0.0530117576442	0.000518190593363	4.59010087452e-05
0.0533078651047	0.000407772233199	3.80281719691e-05
0.0536039717696	0.000445578669719	4.29446950631e-05
0.0539000776343	0.000450944332234	4.12564031414e-05
0.0541961826945	0.000462905041638	4.04291474536e-05
0.0544922869457	0.000445180770741	4.30227759759e-05
0.0547883903836	0.000455021560477	3.83996069757e-05
0.0550844930036	0.000459832732031	4.18348692429e-05
0.0553805948015	0.000357450092791	3.65607182167e-05
0.0556766957728	0.000374073415359	3.62344652877e-05
0.055972795913	0.000477989603906	3.99471742882e-05
0.0562688952177	0.000383021127303	3.52734387618e-05
0.0565649936826	0.00034673561554	2.86447963579e-05
0.0568610913032	0.00027864788479	3.21669362183e-05
0.057157188075	0.000286307729147	2.70782733535e-05
0.0574532839937	0.00029321629229	2.90677026916e-05
0.0577493790548	0.000240517812101	2.82550047544e-05
0.058045473254	0.000299334840748	2.7731566767e-05
0.0583415665867	0.000232633852686	2.58856163779e-05
0.0586376590487	0.000185953287876	2.61999154298e-05
0.0589337506353	0.000217287706287	2.48783298255e-05
0.0592298413424	0.000129585382812	2.18077180161e-05
0.0595259311653	0.000132616243455	2.187733078e-05
0.0598220200998	0.000109458571877	2.02150905753e-05
0.0601181081413	0.000168144568498	2.2082320567e-05
0.0604141952855	0.000120128528721	2.04083743087e-05
0.0607102815279	0.000137179591926	2.12624978649e-05
0.0610063668642	0.000158794130006	2.21885305086e-05
0.0613024512898	0.000171019272521	1.91948227076e-05
0.0615985348005	7.74593714754e-05	1.65608469129e-05
0.0618946173917	0.000111358310914	1.70217906938e-05
0.062190699059	0.000125047597284	2.10448198851e-05
0.0624867797981	0.000115655900922	2.03448075429e-05
0.0627828596045	9.08573239804e-05	1.7456364063e-05
0.0630789384738	6.93614765616e-05	1.59653409045e-05
0.0633750164015	8.2694326463e-05	1.89917020254e-05
0.0636710933833	0.000103011141525	1.57656310928e-05
0.0639671694147	0.000118670177296	1.95042795259e-05
0.0642632444914	0.000115974280219	1.89449199463e-05
0.0645593186088	0.000139832900503	1.76075710988e-05
0.0648553917626	0.000127727990999	2.11483027698e-05
0.0651514639483	0.000122970246474	1.7109603718e-05
0.0654475351616	0.000103119769671	1.79043718081e-05
0.065743605398	5.79081516379e-05	1.35693617219e-05
0.0660396746531	7.7265867038e-05	1.67683550036e-05
0.0663357429224	9.51781609099e-05	1.77629815493e-05
0.0666318102016	0.00011057227388	1.59951968975e-05
0.0669278764863	0.000128158853921	1.7520538702e-05
0.067223941772	0.000151547402314	1.77587632424e-05
0.0675200060542	0.000234972811666	4.31539912668e-05
0.0678160693287	0.000218837679637	4.11468566974e-05
0.0681121315909	0.000229533826399	4.1676854154e-05
0.0684081928364	0.00021650248509	4.2947026746e-05
0.0687042530609	0.000198872249723	4.16775212926e-05
0.0690003122599	0.000247013657981	4.16496631671e-05
0.0692963704289	0.000316476560447	4.42157787804e-05
0.0695924275636	0.000304597328697	4.42339606189e-05
0.0698884836596	0.000252348755178	4.31437261828e-05
0.0701845387124	0.000235259652283	4.34453147823e-05
0.0704805927176	0.000235407761763	4.29808894987e-05
0.0707766456708	0.000255098995269	4.15125937792e-05
0.0710726975675	0.000269117401964	4.09226215995e-05
0.0713687484035	0.000250716996759	4.10028363954e-05
0.0716647981741	0.000234196816093	4.09084180666e-05
0.0719608468751	0.000278250336348	4.29306960182e-05
0.0722568945019	0.000279331764827	4.12703994223e-05
0.0725529410502	0.000221811214653	3.90422564607e-05
0.0728489865156	0.000183600713477	3.76785326591e-05
0.0731450308936	0.000198588267409	3.74968199767e-05
0.0734410741799	0.000211766010686	3.82820848913e-05
0.0737371163699	0.000194212099216	3.64996985654e-05
0.0740331574593	0.000195264390761	3.61953149627e-05
0.0743291974437	0.0001971886398	3.70587816802e-05
0.0746252363186	0.000184805923157	3.59660215578e-05
0.0749212740797	0.000162511693134	3.29455190135e-05
0.0752173107224	0.000137476471059	3.14448194153e-05
0.0755133462425	0.000126114837131	3.08711987444e-05
0.0758093806354	0.000131717526454	3.05181169393e-05
0.0761054138967	0.000126046621217	3.07677552573e-05
0.0764014460221	0.000122585539458	3.07880703852e-05
0.0766974770071	0.000122306506814	2.96343779381e-05
0.0769935068473	0.000108431124379	2.82948840968e-05
0.0772895355383	0.000115125577504	2.93150573566e-05
0.0775855630756	0.000131854589135	2.98553650339e-05
0.0778815894549	8.6985814803e-05	2.85492424835e-05
0.0781776146717	4.76570861791e-05	2.64238385563e-05
0.0784736387216	6.94838952067e-05	2.44973116602e-05
0.0787696616002	8.32592214426e-05	2.46516840169e-05
0.079065683303	7.71459506715e-05	2.56502972533e-05
0.0793617038257	6.58199720054e-05	2.59086195378e-05
0.0796577231638	5.87083188014e-05	2.4706061161e-05
0.0799537413129	7.98203059387e-05	2.43259013289e-05
0.0802497582686	9.44982937375e-05	2.4680302282e-05
0.0805457740265	6.91586519296e-05	2.43865251715e-05
0.0808417885821	5.53066876439e-05	2.34214948071e-05
0.0811378019311	5.30642361275e-05	2.27240467357e-05
0.081433814069	4.68718809722e-05	2.4667045296e-05
0.0817298249914	7.37094851678e-05	2.59887770638e-05
0.0820258346938	0.000100644837672	2.48099590828e-05
0.082321843172	8.34251018118e-05	2.36668672319e-05
0.0826178504213	5.67869682899e-05	2.2484989545e-05
0.0829138564375	6.70603469661e-05	2.30512391981e-05
0.0832098612161	8.59765305585e-05	2.44588503438e-05
0.0835058647527	8.41753967496e-05	2.407599121e-05
0.0838018670429	8.41638268617e-05	2.29590825903e-05
0.0840978680822	8.64720139843e-05	2.2492061864e-05
0.0843938678662	7.96662036516e-05	2.29281198071e-05
0.0846898663906	8.2223878663e-05	2.21214649132e-05
0.0849858636509	8.44705248678e-05	2.17818350877e-05
0.0852818596426	8.19232270309e-05	2.30284750218e-05
0.0855778543614	8.53613399475e-05	2.34788454152e-05
0.0858738478028	8.49279730724e-05	2.40986336202e-05
0.0861698399625	8.41477591546e-05	2.42581716702e-05
0.086465830836	8.85728573886e-05	2.33429152952e-05
0.0867618204188	9.2396305507e-05	2.29492442889e-05
0.0870578087067	8.39434816634e-05	2.18904091313e-05
0.0873537956951	7.55861890312e-05	2.08777434267e-05
0.0876497813796	6.58084351826e-05	2.17530351592e-05
0.0879457657558	6.89285572706e-05	2.21564026557e-05
0.0882417488194	8.75963018853e-05	2.1716235615e-05
0.0885377305658	7.37564055307e-05	1.99829036937e-05
0.0888337109907	5.56739017332e-05	1.79659825228e-05
0.0891296900896	6.3878491969e-05	1.79464773806e-05
0.0894256678582	7.50143977349e-05	1.90680497254e-05
0.0897216442919	6.63715007298e-05	1.90810827116e-05
0.0900176193865	5.25499970426e-05	1.8514345526e-05
0.0903135931374	6.56540527469e-05	1.93863894738e-05
0.0906095655403	7.13772148248e-05	1.8652176225e-05
0.0909055365907	7.68393130138e-05	1.87880644104e-05
0.0912015062843	8.39444100504e-05	2.06750709266e-05
0.0914974746165	6.7791507053e-05	1.97241120479e-05
0.0917934415831	5.75268844614e-05	1.70296035958e-05
0.0920894071795	6.0781187429e-05	1.60225053719e-05
0.0923853714013	5.53306813683e-05	1.54818253935e-05
0.0926813342442	4.5749784369e-05	1.55397117644e-05
0.0929772957037	3.86131403998e-05	1.58528833167e-05
0.0932732557754	3.06228033696e-05	1.48041187067e-05
0.0935692144549	3.88820827918e-05	1.42855095274e-05
0.0938651717377	4.69537269302e-05	1.44597664595e-05
0.0941611276195	4.0077132718e-05	1.33628429563e-05
0.0944570820958	3.14807192532e-05	1.17746299201e-05
0.0947530351623	2.39289365992e-05	1.17131735513e-05
0.0950489868144	2.17732674261e-05	1.26218095805e-05
0.0953449370478	1.77378470264e-05	1.23321638121e-05
0.095640885858	2.60663596137e-05	1.21124695536e-05
0.0959368332407	4.3025675354e-05	1.30848603365e-05
0.0962327791914	3.21529779899e-05	1.34128240722e-05
0.0965287237057	1.93246648003e-05	1.26438296875e-05
0.0968246667792	2.0683208414e-05	1.26439225569e-05
0.0971206084075	2.64936942481e-05	1.32722209224e-05
0.0974165485861	3.04423956794e-05	1.24451157808e-05
0.0977124873107	2.4159616154e-05	1.12525498949e-05
0.0980084245768	3.21087259936e-05	1.23749841842e-05
0.09830436038	3.59718787029e-05	1.23681835912e-05
0.0986002947158	2.49354254606e-05	1.02198407426e-05
0.09889622758	2.41960744262e-05	9.98828688056e-06
0.0991921589679	2.22675015681e-05	9.8905757969e-06
0.0994880888754	2.79649034417e-05	1.15741356043e-05
0.0997840172978	3.45701343761e-05	1.25486144259e-05
0.100079944231	2.64541576098e-05	1.09044847949e-05
0.10037586967	2.35826635136e-05	1.05951024231e-05
0.100671793611	2.46721854179e-05	1.06805850808e-05
0.100967716049	3.18143532143e-05	1.08348181412e-05
0.101263636981	3.6810506026e-05	1.15049804688e-05
0.1015595564	2.77526521366e-05	1.08751282417e-05
0.101855474304	1.84004752886e-05	9.97623581209e-06
0.102151390688	2.90859164531e-05	1.18498836743e-05
0.102447305547	2.27624712085e-05	1.17456098926e-05
0.102743218876	6.13320698987e-06	9.78647203631e-06
0.103039130672	1.29516760691e-05	9.07585712549e-06
0.10333504093	1.6694829576e-05	8.53068812546e-06
0.103630949646	1.97868337944e-05	8.71080289779e-06
0.103926856815	2.05801084322e-05	1.0236228904e-05
0.104222762433	1.63294131214e-05	1.07909561509e-05
0.104518666495	1.35026899541e-05	9.84121492241e-06
0.104814568996	1.95765862115e-05	9.35758560538e-06
0.105110469934	2.42398385212e-05	8.49552183926e-06
0.105406369302	2.19594941878e-05	7.917041845e-06
0.105702267098	2.50236266033e-05	8.73585717449e-06
0.105998163315	2.40538271036e-05	9.70675950321e-06
0.10629405795	1.86188090508e-05	9.09637938906e-06
0.106589950999	1.29335940023e-05	8.57925847544e-06
0.106885842457	1.4011141616e-05	9.51225138669e-06
0.107181732319	2.21530624603e-05	1.01180788129e-05
0.107477620582	2.5581976562e-05	9.59416818172e-06
0.10777350724	1.85532209416e-05	8.53714253624e-06
0.108069392289	1.45743580461e-05	8.17514516899e-06
0.108365275726	1.93009775864e-05	8.44161827632e-06
0.108661157545	1.79380866107e-05	8.29859741463e-06
0.108957037742	1.50305163419e-05	7.70636151406e-06
0.109252916313	1.49790873892e-05	7.36436417889e-06
0.109548793253	2.0642556428e-05	8.30289672007e-06
0.109844668558	2.20708372095e-05	8.40084226631e-06
0.110140542223	1.37099588831e-05	7.42518733608e-06
0.110436414245	1.16757935512e-05	7.62110052125e-06
0.110732284618	1.3156909202e-05	8.00518984978e-06
0.111028153338	1.28471130701e-05	8.31745349502e-06
0.111324020401	1.49731495325e-05	7.79311334689e-06
0.111619885802	1.57907969571e-05	6.89748917919e-06
0.111915749537	1.53355410168e-05	7.72364960936e-06
0.112211611602	1.50844456085e-05	8.46736527462e-06
0.112507471992	1.23073266483e-05	7.55814417192e-06
0.112803330702	1.07194237893e-05	6.53775547898e-06
0.113099187729	8.62671745834e-06	5.99459609479e-06
0.113395043068	1.0326342973e-05	6.58717761253e-06
0.113690896714	1.29577525861e-05	7.39239697527e-06
0.113986748663	1.10290265667e-05	7.74911393968e-06
0.114282598911	8.54867322752e-06	7.24728341352e-06
0.114578447452	9.38166494193e-06	6.01868177897e-06
0.114874294284	7.28016712426e-06	5.74367897826e-06
0.115170139401	2.17977036482e-06	5.58387668133e-06
0.115465982799	3.7097752838e-06	5.46408416291e-06
0.115761824474	6.97956471542e-06	5.29302341702e-06
0.11605766442	9.85421600394e-06	5.2314191188e-06
0.116353502634	8.91720936106e-06	5.30251297498e-06
0.116649339112	5.84917659883e-06	5.83166833445e-06
0.116945173848	1.45023973853e-06	6.14495779691e-06
0.117241006839	3.21145198133e-06	6.19352360002e-06
0.11753683808	1.24652741628e-05	6.15489602951e-06
0.117832667567	1.48734622599e-05	6.12040336248e-06
0.118128495294	1.35525055184e-05	6.32193178913e-06
0.118424321259	9.73172155842e-06	5.69232986057e-06
0.118720145456	6.72320556741e-06	4.79833563083e-06
0.119015967881	6.27145086526e-06	4.72263654372e-06
0.119311788529	7.580796962e-06	5.17155440775e-06
0.119607607396	1.16213794849e-05	5.39061611756e-06
0.119903424479	1.25050365576e-05	5.35588014447e-06
0.120199239771	8.17112973559e-06	5.9347004957e-06
0.120495053269	6.05965272407e-06	5.55118620767e-06
0.120790864969	1.34037952115e-05	5.45259882734e-06
0.121086674866	1.62088533214e-05	5.8283741075e-06
0.121382482956	1.33316724132e-05	5.2759747971e-06
0.121678289233	1.02196933667e-05	4.61077211271e-06
0.121974093695	7.17113491728e-06	4.72360349695e-06
0.122269896336	6.56275521092e-06	4.97908089137e-06
0.122565697152	7.13863281342e-06	4.25618988375e-06
0.122861496138	7.31796523212e-06	3.87438435035e-06
0.123157293291	7.00252674248e-06	3.78402833976e-06
0.123453088605	6.92694059871e-06	4.34928605738e-06
0.123748882076	6.47242276269e-06	4.82607451604e-06
0.124044673701	6.57585603294e-06	4.68603549294e-06
0.124340463474	9.91557709605e-06	6.06395215239e-06
0.124636251391	1.51783528929e-05	6.623918766e-06
0.124932037448	8.9439540032e-06	5.57443235491e-06
0.125227821639	2.48032351188e-06	4.67906166017e-06
0.125523603962	6.72696281187e-06	4.63339009568e-06
0.125819384411	9.61501898493e-06	5.57379511725e-06
0.126115162982	6.07239533849e-06	4.66936570554e-06
0.126410939671	1.14968768226e-06	1.95075633404e-06
