#Loaded raw file: ES_S14_300K_4mT_Remanence_refl_du.xy
#Loaded data range: 0.005 .. inf
#Divided data by: 1.22171028676
#Performed footprint correction
#Beamwidth: 0.5
#Samplelength: 14.0
#Wavelength: 5.1386
#q / A-1 	 I / a.u. 	 sI / a.u. 
0.00512180863042	1.0	0.0089828609973
0.00546326198882	0.985161169595	0.00861488346118
0.00580471524071	0.983391175053	0.00834012291766
0.00614616837943	0.987026843877	0.00810691333572
0.00648762139833	0.990021037993	0.00787821768842
0.00682907429075	0.992248787115	0.00766074282691
0.00717052705003	0.987188346411	0.00743725497916
0.00751197966952	0.995368500466	0.00726886928773
0.00785343214256	0.992980402956	0.00707694535609
0.0081948844625	0.984795349107	0.0068763411618
0.00853633662267	0.9859074179	0.00671966609822
0.00887778861642	0.983254032684	0.00656697145071
0.00921924043709	0.98172818784	0.00642396681361
0.00956069207803	0.966666670711	0.00624733826523
0.00990214353258	0.939196936115	0.00602892138862
0.0102435947941	0.897470242207	0.00577337714721
0.0105850458559	0.83060625196	0.00544619286781
0.0109264967113	0.76473981861	0.00512443374836
0.0112679473537	0.694765315566	0.00480220246891
0.0116093977765	0.621954942042	0.00447063851867
0.0119508479729	0.561189148649	0.00417843422754
0.0122922979363	0.498344458874	0.00387274275163
0.0126337476601	0.434137301771	0.00355114173129
0.0129751971376	0.374423986254	0.0032459437605
0.0133166463621	0.317117216881	0.00294220130181
0.013658095327	0.265677490424	0.00265257685583
0.0139995440256	0.220040384017	0.00238327397709
0.0143409924513	0.179093155166	0.00212500101254
0.0146824405975	0.142947727928	0.00187058400122
0.0150238884573	0.113762753625	0.00164645142561
0.0153653360243	0.0916833547526	0.00146082143017
0.0157067832917	0.0716610969867	0.00127362038406
0.016048230253	0.0551852507697	0.00110343890527
0.0163896769013	0.0422525090041	0.000953800805759
0.0167311232301	0.0311237067868	0.000809973296947
0.0170725692328	0.0230521214561	0.000690698136163
0.0174140149026	0.0181110918087	0.000606000752311
0.0177554602329	0.0146285845794	0.000536724220417
0.018096905217	0.0120826484845	0.00047950489529
0.0184383498484	0.0102614507032	0.000436148180149
0.0187797941202	0.009139434785	0.000407890405968
0.019121238026	0.00888548593543	0.000396724452691
0.019462681559	0.00887053111953	0.000391746263582
0.0198041247125	0.00897060317543	0.000389317516075
0.02014556748	0.00947082013772	0.000394566755201
0.0204870098547	0.00981159010625	0.00039631898982
0.02082845183	0.0100404017869	0.000396292528489
0.0211698933992	0.0101674043576	0.000394902530799
0.0215113345557	0.0101448922781	0.000390307394478
0.0218527752929	0.010447816659	0.000392170349342
0.022194215604	0.010444779015	0.000387898884772
0.0225356554824	0.0101907889034	0.000378712000145
0.0228770949215	0.00982993775283	0.000367732851614
0.0232185339146	0.00958985876889	0.000359317015971
0.023559972455	0.00945261369549	0.000353809022079
0.0239014105361	0.00898222600544	0.000341944967647
0.0242428481513	0.00835995981298	0.000326783949454
0.0245842852938	0.00781218818817	0.000313848195242
0.024925721957	0.0071683356968	0.000297979535181
0.0252671581343	0.00637747536257	0.000278141718051
0.025608593819	0.00579115543551	0.00026312474426
0.0259500290044	0.0050508098672	0.000243899976479
0.026291463684	0.00438299686221	0.000225269443472
0.0266328978509	0.00373361855487	0.000206278605261
0.0269743314987	0.00323741948406	0.000190787124044
0.0273157646206	0.00290887755132	0.000179235399179
0.0276571972099	0.00233471618629	0.00015922376718
0.02799862926	0.00187516037773	0.00014193097077
0.0283400607643	0.00161732737174	0.000131517628007
0.0286814917161	0.00135916801737	0.000120121712384
0.0290229221087	0.0010938100984	0.000106779941874
0.0293643519355	0.000880029105587	9.52887641502e-05
0.0297057811899	0.000652444472543	8.3301034427e-05
0.0300472098651	0.000593416366352	7.93994057083e-05
0.0303886379545	0.000676302407941	8.2721325494e-05
0.0307300654515	0.000673857305775	8.1647341255e-05
0.0310714923494	0.000663145978605	8.05714388689e-05
0.0314129186415	0.000742441162703	8.36711787142e-05
0.0317543443212	0.000829700423211	8.71411652697e-05
0.0320957693819	0.000882374117962	8.91512468307e-05
0.0324371938168	0.000927956541264	9.11075882448e-05
0.0327786176193	0.000993073229404	9.35327229975e-05
0.0331200407828	0.00108544446206	9.64254186396e-05
0.0334614633007	0.00117408882235	9.93409200525e-05
0.0338028851661	0.00134280652579	0.000105525041824
0.0341443063726	0.00145645004033	0.000109150586427
0.0344857269134	0.00146601746502	0.000108930774811
0.0348271467819	0.00156969711256	0.00011164349084
0.0351685659714	0.0015925761966	0.000111368367042
0.0355099844753	0.00155969547106	0.000109804767701
0.0358514022869	0.0014913450313	0.000106784572723
0.0361928193995	0.00142573811917	0.000103332744059
0.0365342358066	0.00139674684727	0.00010170575184
0.0368756515014	0.00127416508328	9.67654538843e-05
0.0372170664773	0.00122030635054	9.41317625068e-05
0.0375584807276	0.00117911830344	9.22512395612e-05
0.0378998942457	0.00109615398189	8.88362066135e-05
0.038241307025	0.00102374056134	8.53541866741e-05
0.0385827190587	0.00096531688326	8.21048419012e-05
0.0389241303402	0.000841198152861	7.58301207441e-05
0.0392655408628	0.00067837479438	6.80389736337e-05
0.03960695062	0.00060973783023	6.42696228532e-05
0.039948359605	0.000533193242556	5.98109820114e-05
0.0402897678112	0.000457276238361	5.50851093434e-05
0.0406311752319	0.000358577975401	4.89472970741e-05
0.0409725818605	0.000273765272336	4.28746631787e-05
0.0413139876903	0.000253342164467	4.06219440845e-05
0.0416553927147	0.000205684793278	3.64990241957e-05
0.0419967969269	0.000137425386395	3.00188374097e-05
0.0423382003205	0.000116794118744	2.80051023955e-05
0.0426796028886	0.00013006693007	2.92583627156e-05
0.0430210046247	0.000121472705123	2.92955718079e-05
0.043362405522	0.000134227723939	2.99937260727e-05
0.043703805574	0.00015420542709	3.09809653303e-05
0.0440452047739	0.000166173646153	3.18985840869e-05
0.0443866031152	0.000181625515949	3.2958487722e-05
0.0447280005911	0.000212156967141	3.58702744092e-05
0.045069397195	0.000271258462495	4.04297442296e-05
0.0454107929203	0.000337949060213	4.3843665273e-05
0.0457521877603	0.000432730564771	4.9082562766e-05
0.0460935817083	0.000458262722752	5.06944113e-05
0.0464349747577	0.000470983333324	5.05391272574e-05
0.0467763669018	0.000541418270077	5.33372424744e-05
0.047117758134	0.000544087500823	5.35745877564e-05
0.0474591484476	0.000593263328128	5.58161641761e-05
0.0478005378359	0.000653205869773	5.78758443084e-05
0.0481419262924	0.000654966435094	5.76398545966e-05
0.0484833138103	0.000679694621646	5.84474368067e-05
0.048824700383	0.000721456794817	5.96380159054e-05
0.0491660860039	0.000753228606498	6.04737156087e-05
0.0495074706662	0.000705504256149	5.82959696115e-05
0.0498488543633	0.000629033399497	5.47933700669e-05
0.0501902370887	0.000595322572553	5.30341415194e-05
0.0505316188355	0.000570368707573	5.18038384237e-05
0.0508729995972	0.000572065827424	5.16547023882e-05
0.0512143793671	0.000562666786727	5.09016280273e-05
0.0515557581386	0.000517434751266	4.86332385775e-05
0.0518971359049	0.000471581460433	4.59428135706e-05
0.0522385126595	0.000418507834453	4.31169083893e-05
0.0525798883956	0.000392059554501	4.17999746891e-05
0.0529212631067	0.000353042401407	3.9833671396e-05
0.0532626367861	0.000276306749168	3.55739117273e-05
0.0536040094271	0.000263136898083	3.40055722559e-05
0.053945381023	0.00024403281437	3.26432626456e-05
0.0542867515673	0.000206824355843	2.99536278226e-05
0.0546281210532	0.000200624813549	2.91152347464e-05
0.0549694894741	0.000179282250449	2.82695918666e-05
0.0553108568234	0.000165684518869	2.73502479952e-05
0.0556522230943	0.000143486411564	2.53249629374e-05
0.0559935882802	0.000120009061413	2.33073023441e-05
0.0563349523746	0.000143327029298	2.47221293913e-05
0.0566763153706	0.000177215044909	2.74865124297e-05
0.0570176772618	0.00018267919748	2.80698420186e-05
0.0573590380413	0.0002059329122	2.90846089221e-05
0.0577003977026	0.00029285173005	3.36966481084e-05
0.058041756239	0.000347242766571	3.6377220202e-05
0.0583831136438	0.000335716738532	3.59766370995e-05
0.0587244699105	0.000345657890602	3.63283354839e-05
0.0590658250322	0.000372997422962	3.73603321035e-05
0.0594071790025	0.000396538243434	3.84648042176e-05
0.0597485318146	0.000441987463935	4.02826713389e-05
0.0600898834618	0.000493683858491	4.21135430875e-05
0.0604312339376	0.000535480380726	4.37834360014e-05
0.0607725832352	0.000592392558861	4.58889231078e-05
0.061113931348	0.000639374079871	4.72042551244e-05
0.0614552782694	0.000662709253216	4.77483923925e-05
0.0617966239927	0.000678357744061	4.83568605889e-05
0.0621379685112	0.000687166504031	4.84580295034e-05
0.0624793118183	0.000684113110064	4.79197633435e-05
0.0628206539074	0.000704194534882	4.84691886835e-05
0.0631619947717	0.000713093479587	4.87587928862e-05
0.0635033344047	0.000688954743946	4.79212498562e-05
0.0638446727996	0.000687393827523	4.75113703446e-05
0.0641860099498	0.000719887710852	4.82014420841e-05
0.0645273458487	0.000679952921613	4.65653450928e-05
0.0648686804896	0.000619111703376	4.43401498252e-05
0.0652100138659	0.00065577865427	4.56101432719e-05
0.0655513459708	0.000660720550556	4.56884032749e-05
0.0658926767978	0.000624117554199	4.41108831334e-05
0.0662340063402	0.000608797386764	4.3206097489e-05
0.0665753345913	0.000543516659294	4.06903858711e-05
0.0669166615445	0.000460066561799	3.72458664988e-05
0.0672579871931	0.000455408454894	3.67684966888e-05
0.0675993115305	0.000483145192661	3.77590194396e-05
0.06794063455	0.000446286551543	3.6480071753e-05
0.068281956245	0.00038455057126	3.39887152908e-05
0.0686232766088	0.000337646076757	3.17635539967e-05
0.0689645956347	0.00028153448289	2.89406771084e-05
0.0693059133162	0.000249719142649	2.7118880891e-05
0.0696472296464	0.000258379653931	2.72581855479e-05
0.0699885446189	0.000269303266621	2.78789922314e-05
0.0703298582269	0.000260163736399	2.73681686024e-05
0.0706711704638	0.000230462125638	2.56320034293e-05
0.0710124813229	0.0002015041802	2.38701155472e-05
0.0713537907976	0.000189564224612	2.3151611636e-05
0.0716950988812	0.000175658489276	2.25680936069e-05
0.0720364055671	0.000176182744157	2.2456038399e-05
0.0723777108486	0.000169327751852	2.18715348749e-05
0.0727190147191	0.000145665278685	2.03035106262e-05
0.0730603171718	0.000132628724244	1.96068057863e-05
0.0734016182002	0.000129492648937	1.92853092599e-05
0.0737429177977	0.0001373418534	1.92281294198e-05
0.0740842159574	0.000115410934785	1.75312993602e-05
0.0744255126729	8.6873051193e-05	1.55579350803e-05
0.0747668079373	8.23208325683e-05	1.5207160281e-05
0.0751081017442	8.17753217697e-05	1.50771206138e-05
0.0754493940868	8.93294809161e-05	1.56725603534e-05
0.0757906849585	8.91909981675e-05	1.55343697674e-05
0.0761319743525	9.2529241577e-05	1.56899872505e-05
0.0764732622624	0.00010020617831	1.64146242395e-05
0.0768145486814	0.000108157071741	1.69092040418e-05
0.0771558336028	0.000115156904242	1.72164432193e-05
0.07749711702	0.000108859701284	1.65351871723e-05
0.0778383989264	8.13569848301e-05	1.42723983893e-05
0.0781796793153	6.65754546083e-05	1.31217828256e-05
0.0785209581801	7.0579310488e-05	1.33558415177e-05
0.078862235514	6.83946997767e-05	1.32040603585e-05
0.0792035113105	6.4454449831e-05	1.29028695897e-05
0.0795447855628	7.19374290375e-05	1.33452080812e-05
0.0798860582644	7.32277200378e-05	1.34452957788e-05
0.0802273294086	5.83631171444e-05	1.21621506478e-05
0.0805685989887	5.69424242315e-05	1.19657296015e-05
0.0809098669981	6.57062536468e-05	1.2649065436e-05
0.0812511334301	5.64776486226e-05	1.17910661733e-05
0.081592398278	4.23950355106e-05	1.0638323145e-05
0.0819336615353	4.44741450864e-05	1.07132703573e-05
0.0822749231953	4.00226809643e-05	9.95747340949e-06
0.0826161832512	3.28405478078e-05	9.54155697948e-06
0.0829574416965	3.44307851209e-05	1.00948342634e-05
0.0832986985245	4.69849539899e-05	1.08785946958e-05
0.0836399537286	4.46254143909e-05	1.03519114507e-05
0.083981207302	2.92771465348e-05	8.53340002983e-06
0.0843224592382	3.05681673406e-05	8.5458431651e-06
0.0846637095305	4.08953161652e-05	9.74411811984e-06
0.0850049581722	4.98195778905e-05	1.06347062044e-05
0.0853462051567	4.11883008612e-05	1.00446292151e-05
0.0856874504773	2.96511381531e-05	8.95799525578e-06
0.0860286941275	3.2544613379e-05	9.03334246722e-06
0.0863699361004	2.96491406235e-05	9.03818160795e-06
0.0867111763895	3.23877703594e-05	9.06387002651e-06
0.0870524149881	4.03790168644e-05	9.58072525692e-06
0.0873936518896	3.64382351392e-05	9.1688222534e-06
0.0877348870874	2.92708358338e-05	8.60687280316e-06
0.0880761205746	3.04725094709e-05	8.98011067137e-06
0.0884173523448	3.99340466822e-05	9.95660246859e-06
0.0887585823913	3.96976637521e-05	9.6351993747e-06
0.0890998107073	3.1783007243e-05	8.46598319311e-06
0.0894410372864	2.65797392902e-05	8.06030206627e-06
0.0897822621217	2.51721861806e-05	8.24267057304e-06
0.0901234852066	2.96369941207e-05	8.51866673568e-06
0.0904647065346	3.31985072011e-05	8.62091967859e-06
0.0908059260989	2.60682191499e-05	7.90544740276e-06
0.0911471438929	3.26890826498e-05	8.6668795334e-06
0.0914883599099	3.77333745033e-05	9.30483360397e-06
0.0918295741433	2.88038976062e-05	8.56701701098e-06
0.0921707865865	3.00653827707e-05	8.56911737276e-06
0.0925119972327	2.72458543696e-05	8.42806061932e-06
0.0928532060754	2.75116491102e-05	8.62447504154e-06
0.0931944131078	3.33786147003e-05	8.87691736354e-06
0.0935356183234	2.72128684178e-05	8.14435224874e-06
0.0938768217155	1.8787106853e-05	7.28913280343e-06
0.0942180232773	1.92920746371e-05	7.31383267803e-06
0.0945592230024	2.22012754319e-05	7.55234038235e-06
0.0949004208839	2.20065474045e-05	7.73608439267e-06
0.0952416169154	1.90077218313e-05	7.84009363765e-06
0.09558281109	2.49302024138e-05	8.43501501767e-06
0.0959240034012	3.08034713856e-05	8.48199043469e-06
0.0962651938423	2.86645003355e-05	7.90104392354e-06
0.0966063824067	2.53965371883e-05	7.55899891981e-06
0.0969475690877	2.26806443654e-05	7.485466969e-06
0.0972887538787	2.09514899546e-05	7.35774413864e-06
0.0976299367729	2.24293852722e-05	7.06157745999e-06
0.0979711177638	2.68586124977e-05	7.56021736674e-06
0.0983122968447	2.31790978957e-05	7.09210569571e-06
0.098653474009	2.40995131844e-05	7.18360773794e-06
0.09899464925	2.41453284814e-05	7.08887051118e-06
0.099335822561	9.16179679525e-06	4.28097905269e-06
