#Loaded raw file: ES_S15_30K_FC_7300Oe_tranformed_angs_du_masked_qz_I.xy
#Loaded data range: 0.005 .. inf
#Divided data by: 4.20080977986
#Performed footprint correction
#Beamwidth: 1.0
#Samplelength: 14.0
#Wavelength: 5.1386
#q / A-1 	 I / a.u. 	 sI / a.u. 
0.00507734505523	0.978106898375	0.0243626926466
0.00541583418006	1.0	0.0242471130075
0.0057543231993	0.98079265446	0.0204677876825
0.00609281210636	0.958698473807	0.0203022504029
0.00643130089464	0.972562262367	0.0203868896456
0.00676978955753	0.961184080721	0.0162920574406
0.00710827808845	0.936044053195	0.0146834813568
0.00744676648079	0.894224240071	0.014363255727
0.00778525472794	0.833850624905	0.0155304016345
0.00812374282332	0.749912735284	0.014665540249
0.00846223076033	0.6501925633	0.0139663538376
0.00880071853236	0.533069368794	0.0108237559302
0.00913920613281	0.456308858442	0.00896367497325
0.00947769355509	0.425631587017	0.00864354526889
0.0098161807926	0.412339190413	0.0103209633432
0.0101546678387	0.382596028562	0.010492865886
0.0104931546869	0.373687560714	0.0113539808478
0.0108316413305	0.419690350077	0.00952926482423
0.0111701277629	0.506379366937	0.0100201874971
0.0115086139776	0.58250243338	0.0137575609798
0.0118470999679	0.599152234222	0.0146624602603
0.0121855857272	0.521827028805	0.0133841165875
0.012524071249	0.392671651244	0.00938785330943
0.0128625565266	0.257883572046	0.00577648205332
0.0132010415534	0.154415646365	0.00335846606114
0.0135395263229	0.0885450491983	0.00251316770349
0.0138780108284	0.0520596169458	0.00194492592285
0.0142164950634	0.0350387219175	0.00161720002576
0.0145549790212	0.0252154124271	0.00139774417452
0.0148934626952	0.0184720225315	0.00119511622948
0.0152319460789	0.013587514533	0.00108100588613
0.0155704291656	0.0111895359727	0.00097185681884
0.0159089119488	0.0106871435525	0.000919530350029
0.0162473944218	0.0123391171375	0.000876084593457
0.0165858765781	0.0160202959812	0.000857385122295
0.016924358411	0.0226718670486	0.000970896661088
0.017262839914	0.0342643686057	0.00113395469924
0.0176013210805	0.0464664043412	0.00137423949594
0.0179398019037	0.0534262262035	0.00166955404242
0.0182782823773	0.0527987249862	0.00164347617236
0.0186167624945	0.0435230525925	0.00142025630003
0.0189552422487	0.0310934379567	0.00116085710242
0.0192937216334	0.0203443202774	0.000797356686346
0.019632200642	0.0123820686941	0.000552442929421
0.0199706792678	0.00847346842215	0.000532517920624
0.0203091575043	0.00582358596149	0.000393988459064
0.0206476353448	0.00408546453707	0.000282639707426
0.0209861127829	0.00329280071169	0.000239791059369
0.0213245898117	0.00276928116232	0.00022047809494
0.0216630664249	0.00242211017592	0.000209715017604
0.0220015426157	0.00220204518289	0.000160564539531
0.0223400183776	0.00183225815455	0.00015380694231
0.0226784937039	0.00174146705184	0.000144940888196
0.0230169685881	0.00135838337302	0.00014792353008
0.0233554430236	0.00136949052167	0.000155597478417
0.0236939170038	0.00136289649266	0.000129827211911
0.0240323905221	0.00146528651898	0.000125025954411
0.0243708635718	0.00177312838915	0.000137388547751
0.0247093361464	0.00256007858365	0.000155057413811
0.0250478082392	0.00386512368685	0.000185477771423
0.0253862798438	0.00417140786317	0.00019627186868
0.0257247509534	0.00428773138839	0.000201068840124
0.0260632215616	0.00429169900449	0.000180235681548
0.0264016916616	0.00407272620931	0.000192898182769
0.0267401612468	0.00361135633013	0.000171830721756
0.0270786303108	0.00313865117809	0.000154631826285
0.0274170988469	0.00351446149355	0.000201413523459
0.0277555668484	0.00254688889034	0.000114383325702
0.0280940343089	0.00219631373505	0.000127270191706
0.0284325012216	0.00217280549318	0.00012565941634
0.02877096758	0.00213902987699	0.00012056283448
0.0291094333776	0.0020002085022	0.000107941453815
0.0294478986076	0.00177026558679	0.000112754426213
0.0297863632635	0.0016493965758	0.000103523871704
0.0301248273387	0.0016055106054	0.000109452813528
0.0304632908267	0.00144555637244	0.000101469146317
0.0308017537207	0.00165378614403	0.000108858749585
0.0311402160142	0.00215769116192	0.000111870718268
0.0314786777006	0.00262997511772	0.000128154262503
0.0318171387734	0.00319328288694	0.000148667735951
0.0321555992258	0.00384973163256	0.000154741589159
0.0324940590514	0.00436076126041	0.000169483459814
0.0328325182434	0.00494782810332	0.00015874229755
0.0331709767954	0.00528413751643	0.000166681209755
0.0335094347007	0.00541057867674	0.000178195855739
0.0338478919527	0.00573616469576	0.000227754187271
0.0341863485449	0.00474773003256	0.000153451008949
0.0345248044705	0.00381496726393	0.000122976307408
0.0348632597231	0.00315809238778	0.000114112491806
0.035201714296	0.00268853250676	0.000103814836652
0.0355401681826	0.00226210332123	8.86782590689e-05
0.0358786213764	0.00195633910404	8.14887569432e-05
0.0362170738706	0.00163328940046	7.35130726291e-05
0.0365555256588	0.00139152001626	6.57967543654e-05
0.0368939767344	0.00119152864251	6.52484869704e-05
0.0372324270906	0.00092070893487	4.9323015802e-05
0.037570876721	0.000868984986248	4.05119120324e-05
0.037909325619	0.000868671299748	4.86397482624e-05
0.0382477737778	0.000778151421303	4.76400816401e-05
0.0385862211911	0.000742019651641	4.81215239573e-05
0.038924667852	0.000711176304139	4.52908617387e-05
0.0392631137541	0.000685431452519	4.65987374805e-05
0.0396015588908	0.000692630466591	4.0513485188e-05
0.0399400032554	0.000766083942132	4.06642165491e-05
0.0402784468413	0.000801066414816	4.28564149159e-05
0.040616889642	0.000799329925028	3.78255595309e-05
0.0409553316508	0.000809189655151	4.7647134385e-05
0.0412937728612	0.000759646135873	3.94299494592e-05
0.0416322132666	0.000781848036754	3.8619114215e-05
0.0419706528603	0.000761510704741	3.7529549994e-05
0.0423090916358	0.00065302533193	3.65699903278e-05
0.0426475295864	0.000567339480098	3.86409990141e-05
0.0429859667056	0.000537823342885	3.19895184041e-05
0.0433244029868	0.000517854355911	3.53674611982e-05
0.0436628384234	0.00052867330796	3.50621577753e-05
0.0440012730087	0.000425262893628	3.20245432214e-05
0.0443397067361	0.000319503763467	2.76061875e-05
0.0446781395992	0.000337200937396	2.67269946307e-05
0.0450165715912	0.000349297988838	2.59063654352e-05
0.0453550027056	0.000385195885434	3.36339982653e-05
0.0456934329358	0.000458074462489	3.30126199171e-05
0.0460318622752	0.000418040170374	2.63992139525e-05
0.0463702907172	0.000414252183101	2.77912603249e-05
0.0467087182551	0.000529587456441	3.5252141321e-05
0.0470471448825	0.00052150507209	3.30606234847e-05
0.0473855705926	0.000606540151859	3.70747481696e-05
0.0477239953789	0.000627285292789	3.81520079999e-05
0.0480624192348	0.000689324013777	3.74303518745e-05
0.0484008421538	0.000722420355344	3.662038415e-05
0.0487392641291	0.000771882770822	4.11404705179e-05
0.0490776851542	0.000671734690715	3.53389671017e-05
0.0494161052225	0.000685071365081	3.52621794926e-05
0.0497545243275	0.000777022488209	3.380523616e-05
0.0500929424624	0.000767169990825	3.55463707344e-05
0.0504313596208	0.000718479935447	3.82220506862e-05
0.0507697757959	0.000670890065766	3.48982637633e-05
0.0511081909813	0.000628112595275	3.19113818995e-05
0.0514466051703	0.000588244498817	2.99160303331e-05
0.0517850183564	0.000548116515636	3.18753343108e-05
0.0521234305328	0.000512669169457	3.00366651975e-05
0.0524618416931	0.000527040502023	2.92722504896e-05
0.0528002518306	0.000454297781325	2.89171138629e-05
0.0531386609387	0.00044420176831	2.70811967128e-05
0.0534770690109	0.000409872350826	2.44923932545e-05
0.0538154760405	0.000433357756448	2.64118814973e-05
0.054153882021	0.000442228415525	2.59075981921e-05
0.0544922869457	0.000428071339782	2.24503305054e-05
0.054830690808	0.000432601600046	2.51907099111e-05
0.0551690936014	0.000430206225316	2.39632124556e-05
0.0555074953193	0.000479157625338	2.6930629947e-05
0.0558458959549	0.000448950870045	2.51957539123e-05
0.0561842955019	0.000418893899132	2.34575563088e-05
0.0565226939535	0.000416449020585	2.5592251429e-05
0.0568610913032	0.000416007789908	2.21014003322e-05
0.0571994875443	0.00040817773155	2.30174345974e-05
0.0575378826703	0.000384769779023	2.36034098217e-05
0.0578762766746	0.000368276645642	2.11376737105e-05
0.0582146695505	0.000386589158345	2.17862035931e-05
0.0585530612915	0.00035489124996	2.06144663169e-05
0.058891451891	0.000354995055009	2.28182810472e-05
0.0592298413424	0.000272171128562	1.83685967804e-05
0.059568229639	0.00024046736306	1.66194400251e-05
0.0599066167744	0.000220117182508	1.55260795656e-05
0.0602450027418	0.000198758990475	1.44788838124e-05
0.0605833875347	0.00019194852401	1.44429364927e-05
0.0609217711465	0.000203032641873	1.6194351735e-05
0.0612601535707	0.00017157736299	1.51386051257e-05
0.0615985348005	0.000130739661881	1.36415796132e-05
0.0619369148294	0.000117850627243	1.17654349906e-05
0.0622752936508	8.84294220552e-05	1.24444591485e-05
0.0626136712582	7.02037149367e-05	1.18012698978e-05
0.0629520476448	0.000105089120224	1.1856727889e-05
0.0632904228042	5.59472273324e-05	1.00108984686e-05
0.0636287967297	5.04310646112e-05	9.80581536456e-06
0.0639671694147	5.72500997443e-05	8.39668913868e-06
0.0643055408527	6.31859114906e-05	8.33769316381e-06
0.064643911037	4.74893264991e-05	9.44553426128e-06
0.064982279961	7.81065297611e-05	8.1314974043e-06
0.0653206476181	5.37810041334e-05	8.1331242889e-06
0.0656590140018	4.72939498563e-05	9.84665577325e-06
0.0659973791054	4.53260715076e-05	9.15800885984e-06
0.0663357429224	5.6398191328e-05	8.95333805234e-06
0.0666741054461	6.12390926908e-05	8.6507362669e-06
0.06701246667	6.56576656024e-05	8.18772035467e-06
0.0673508265875	7.75627412354e-05	9.24471892761e-06
0.0676891851919	7.44705649293e-05	9.19750206756e-06
0.0680275424766	7.19685513247e-05	8.59464842449e-06
0.0683658984352	8.20928692497e-05	8.63372167787e-06
0.0687042530609	7.4300970318e-05	8.50702340759e-06
0.0690426063472	6.45051120703e-05	7.87009934746e-06
0.0693809582874	5.15330564003e-05	9.44297802598e-06
0.0697193088751	7.42743378539e-05	9.73677165834e-06
0.0700576581035	5.11253657961e-05	9.04583588813e-06
0.0703960059661	5.62894517436e-05	8.82838113814e-06
0.0707343524563	7.441587928e-05	9.17572846391e-06
0.0710726975675	6.6974381609e-05	9.31298382971e-06
0.0714110412932	8.92394382068e-05	9.3460361182e-06
0.0717493836266	6.88461709234e-05	8.19339050593e-06
0.0720877245612	6.96305947191e-05	8.88076212822e-06
0.0724260640904	7.9545747874e-05	9.77966393882e-06
0.0727644022077	6.14708214252e-05	8.42040223323e-06
0.0731027389064	6.02639791422e-05	8.29114758831e-06
0.0734410741799	9.13858139206e-05	1.89168754209e-05
0.0737794080216	8.90875042023e-05	1.91377627242e-05
0.074117740425	9.10041052597e-05	1.85628560526e-05
0.0744560713834	0.000105011320955	1.82892628467e-05
0.0747944008902	0.000109967990497	1.86334386214e-05
0.0751327289389	0.00010151975776	1.78361155936e-05
0.0754710555228	0.000100338505183	1.7555880826e-05
0.0758093806354	0.000105885699239	1.7672667329e-05
0.07614770427	0.000107544271438	1.71270800565e-05
0.0764860264201	8.82283585733e-05	1.57639235207e-05
0.0768243470791	6.79777331409e-05	1.49959143997e-05
0.0771626662403	6.62920629274e-05	1.54381991607e-05
0.0775009838972	6.46722814937e-05	1.48329868639e-05
0.0778393000432	5.81634511918e-05	1.34592860508e-05
0.0781776146717	5.07358085428e-05	1.32662293977e-05
0.0785159277761	4.6822976745e-05	1.31468060071e-05
0.0788542393497	4.80446848453e-05	1.23201339057e-05
0.0791925493861	4.98115335709e-05	1.22106789852e-05
0.0795308578785	4.25265903083e-05	1.24663359565e-05
0.0798691648205	3.39459949724e-05	1.22915259841e-05
0.0802074702053	3.46446169056e-05	1.23800428699e-05
0.0805457740265	3.41354582105e-05	1.20033941027e-05
0.0808840762774	3.36398298496e-05	1.1782475002e-05
0.0812223769514	3.38325208008e-05	1.13312512307e-05
0.081560676042	3.35521195635e-05	1.0638006961e-05
0.0818989735424	3.8415542189e-05	1.1253744808e-05
0.0822372694463	3.2800200857e-05	1.17448191253e-05
0.0825755637468	2.56987026158e-05	1.21273212863e-05
0.0829138564375	2.80881166329e-05	1.14546908965e-05
0.0832521475118	2.81334983228e-05	9.99790432893e-06
0.083590436963	2.97171209373e-05	9.97991411041e-06
0.0839287247846	2.95901109474e-05	1.08389148165e-05
0.0842670109699	2.823023574e-05	1.06117715865e-05
0.0846052955124	3.15864113131e-05	1.01429468622e-05
0.0849435784055	3.19469958077e-05	1.05132150592e-05
0.0852818596426	2.97885955275e-05	1.10284068662e-05
0.085620139217	2.05056567695e-05	1.01381729542e-05
0.0859584171223	1.46222443439e-05	8.48871353538e-06
0.0862966933517	2.41100872962e-05	9.94912859474e-06
0.0866349678988	3.29556527407e-05	1.11859531733e-05
0.0869732407568	3.92434332003e-05	1.07146347101e-05
0.0873115119193	4.24982767366e-05	1.03475304882e-05
0.0876497813796	4.0671256448e-05	1.07029483419e-05
0.0879880491311	3.8641531835e-05	1.09786928635e-05
0.0883263151672	3.78893437023e-05	1.05725586416e-05
0.0886645794814	3.54107673457e-05	9.67160055218e-06
0.089002842067	3.04923643946e-05	9.30316233401e-06
0.0893411029174	3.45299871111e-05	9.68089376785e-06
0.0896793620261	4.56638790693e-05	1.01336287036e-05
0.0900176193865	3.63763917858e-05	9.64373685986e-06
0.0903558749919	2.32495225396e-05	8.64842883756e-06
0.0906941288358	2.89130458567e-05	8.90730956179e-06
0.0910323809115	2.96248669551e-05	9.11493673189e-06
0.0913706312125	2.21037904643e-05	8.65754340941e-06
0.0917088797322	1.91371678645e-05	8.89906063121e-06
0.092047126464	2.23445356234e-05	9.36165378183e-06
0.0923853714013	2.99127430721e-05	9.45045327953e-06
0.0927236145375	3.48815386945e-05	9.1703662609e-06
0.093061855866	2.78376411081e-05	8.35586787077e-06
0.0934000953802	2.31018963482e-05	8.05076698783e-06
0.0937383330735	3.05762152404e-05	8.62722897377e-06
0.0940765689394	2.55484498251e-05	8.36053215578e-06
0.0944148029712	1.40836834048e-05	7.4142268374e-06
0.0947530351623	1.10372257582e-05	6.89485702117e-06
0.0950912655061	1.10928732214e-05	6.91279389484e-06
0.0954294939961	1.71241171862e-05	7.44022487159e-06
0.0957677206257	2.35787012181e-05	7.92521953719e-06
0.0961059453882	1.29801418097e-05	7.49460309256e-06
0.096444168277	3.24643466268e-06	5.97821199959e-06
0.0967823892857	1.16975247017e-05	6.06743827106e-06
0.0971206084075	1.2501128194e-05	6.59906549206e-06
0.0974588256359	1.30425662914e-05	6.694518168e-06
0.0977970409643	1.31694080825e-05	6.22485876944e-06
0.0981352543861	1.15995786524e-05	6.06812127285e-06
0.0984734658947	1.04745544734e-05	6.05336081891e-06
0.0988116754835	4.86540912727e-06	5.73541974093e-06
0.0991498831459	8.25011880817e-06	5.73698716545e-06
0.0994880888754	1.44094451046e-05	5.54087879625e-06
0.0998262926652	1.76613289615e-05	5.89669740267e-06
0.100164494509	1.31141572853e-05	6.09467045874e-06
0.1005026944	7.51058164874e-06	6.15668324413e-06
0.100840892331	1.32179001129e-05	6.25221239221e-06
0.101179088297	1.3856366211e-05	5.99548448606e-06
0.10151728229	9.53130637891e-06	5.16475291301e-06
0.101855474304	1.2014167805e-05	5.14647388283e-06
0.102193664332	1.25456311899e-05	5.51691272892e-06
0.102531852368	1.18114609652e-05	4.95657079672e-06
0.102870038405	1.37134097179e-05	4.89246284653e-06
0.103208222437	1.38256306669e-05	6.22539226016e-06
0.103546404456	1.33532924434e-05	6.06575029445e-06
0.103884584457	1.10630335482e-05	4.82348653435e-06
0.104222762433	7.80780168732e-06	4.86034000987e-06
0.104560938376	8.49627635302e-06	4.79304286862e-06
0.104899112281	8.92866735741e-06	4.10836772231e-06
0.105237284141	1.01959062675e-05	4.20681427107e-06
0.10557545395	7.49739394371e-06	3.91270163325e-06
0.1059136217	2.56185199168e-06	3.18148207422e-06
0.106251787385	1.99481382812e-06	3.14132512149e-06
0.106589950999	3.53302692739e-06	2.81650292219e-06
0.106928112535	3.73605885184e-06	3.01791351916e-06
0.107266271986	1.83477212742e-06	2.54583038409e-06
0.107604429346	4.88565296953e-07	2.30820114552e-06
0.107942584608	2.00137194214e-06	2.82911162398e-06
0.108280737766	4.37907039871e-06	3.06345755327e-06
0.108618888813	6.34934289829e-06	3.36624489459e-06
0.108957037742	6.90640911055e-06	3.39709808309e-06
0.109295184547	4.38136219177e-06	2.60668589685e-06
0.109633329221	2.79370388811e-06	1.99103470513e-06
0.109971471758	2.28309253812e-06	1.79697409157e-06
0.110309612151	8.03050245361e-07	1.0640608996e-06
0.110647750394	4.84946692283e-07	1.06989230386e-06
0.110985886479	1.45012696676e-06	2.005768568e-06
0.111324020401	2.39785905175e-06	2.15882100206e-06
0.111662152152	3.89338076262e-06	2.3768742261e-06
0.112000281726	5.83400093462e-06	2.94214575224e-06
0.112338409117	5.03677898849e-06	2.88565306926e-06
0.112676534318	1.74578552484e-06	2.09008274809e-06
0.113014657322	8.25485143978e-07	1.54233396598e-06
0.113352778123	1.61558155453e-06	1.48911797706e-06
0.113690896714	1.15506143359e-06	1.25725345853e-06
0.114029013088	1.1231133773e-06	1.23805574242e-06
0.11436712724	1.83442677487e-06	1.5803382404e-06
0.114705239161	3.08863368753e-06	2.04798017766e-06
0.115043348847	4.40493099963e-06	2.44215357712e-06
0.11538145629	5.15596081029e-06	2.71711515706e-06
0.115719561483	3.90622857995e-06	2.58843399717e-06
0.11605766442	1.1372021039e-06	1.85526062231e-06
0.116395765095	-3.99485513197e-07	1.78381528347e-06
0.1167338635	2.01425286011e-07	1.45943012724e-06
0.11707195963	1.1792216373e-06	1.79747863353e-06
0.117410053477	1.30816859567e-06	1.9066473548e-06
0.117748145036	6.87316290165e-07	1.29333109386e-06
0.118086234298	1.02739431619e-06	1.16491346468e-06
0.118424321259	1.20731509216e-06	1.35309740467e-06
0.118762405911	8.57771100454e-07	1.44333912361e-06
0.119100488247	2.33070093721e-06	2.01835036998e-06
0.119438568262	2.67473861763e-06	1.86882067324e-06
0.119776645948	1.37441626461e-06	1.33769632109e-06
0.120114721299	1.29825790667e-06	1.29825790667e-06
0.120452794308	7.82137834786e-07	1.00627728934e-06
0.120790864969	1.1300212742e-06	1.20787747405e-06
0.121128933275	1.59582156957e-06	1.43341104513e-06
0.12146699922	1.55140028637e-06	1.41138124604e-06
0.121805062797	3.01000934673e-06	1.96319216491e-06
0.122143123999	2.44716709859e-06	1.76770121649e-06
0.122481182819	1.65829913464e-06	1.45314602249e-06
0.122819239252	1.88131393424e-06	1.57254101836e-06
0.123157293291	-1.45948962229e-06	2.7870603697e-06
0.123495344928	-1.77787896128e-06	2.54024149954e-06
0.123833394158	0.0	0.0
0.124171440973	4.75504043889e-07	7.72795608176e-07
0.124509485368	4.51069807655e-07	1.23169632878e-06
0.124847527336	1.22029494985e-06	1.80117600544e-06
0.125185566869	1.82295293607e-06	1.94880558119e-06
0.125523603962	7.58797329883e-07	9.70872526459e-07
0.125861638608	0.0	0.0
0.1261996708	0.0	0.0
0.126537700532	0.0	0.0
