#Loaded raw file: ES_S16_30K_ZFC_7Oe_Remanence_tranformed_angs_uu_masked_qz_I.xy
#Loaded data range: 0.005 .. inf
#Divided data by: 1.76797935287
#Performed footprint correction
#Beamwidth: 1.0
#Samplelength: 14.0
#Wavelength: 5.1386
#q / A-1 	 I / a.u. 	 sI / a.u. 
0.00533121190849	0.0867836752656	0.00885633976358
0.00609281210636	0.326690788671	0.0141083972894
0.00685441170289	0.673694036882	0.018426941442
0.00761601062293	0.927224311313	0.0200957277341
0.00837760879129	1.0	0.0196226861457
0.00913920613281	0.935984205201	0.0178672999608
0.00990080257233	0.771473569729	0.0153269011462
0.0106623980347	0.75935850456	0.0144450115584
0.0114239924447	0.887677184984	0.014404967817
0.0121855857272	0.793246333295	0.012914055335
0.012947177807	0.37226059783	0.00899678695853
0.0137087686091	0.127420617305	0.00489419622216
0.0144703580581	0.0520485903778	0.00351325723747
0.0152319460789	0.126270470138	0.00632518785863
0.0159935325964	0.161599454236	0.00560889174261
0.0167551175354	0.119735083087	0.00444861394432
0.0175167008208	0.0504943126136	0.00289077898136
0.0182782823773	0.0211542287284	0.00169609916979
0.0190398621298	0.0155519164774	0.00101467536129
0.0198014400032	0.0282859434364	0.00122324570034
0.0205630159222	0.05118143832	0.00179137091115
0.0213245898117	0.0574671928403	0.00263213101396
0.0220861615966	0.0278902915837	0.00126613070221
0.0228477312017	0.00795218183288	0.000607296992606
0.0236092985518	0.00310122452484	0.000416431180578
0.0243708635718	0.00185013932838	0.000303450997494
0.0251324261864	0.00458662385563	0.000370061123452
0.0258939863206	0.011133944472	0.00062380166399
0.0266555438991	0.0149209838491	0.00067684938119
0.0274170988469	0.0120587093701	0.000594137037881
0.0281786510887	0.00652633764116	0.000363539981348
0.0289402005493	0.0033216121302	0.000289602105151
0.0297017471537	0.00328227616394	0.000260502123864
0.0304632908267	0.0045928020337	0.000329539678923
0.031224831493	0.0049259861725	0.000293862354606
0.0319863690775	0.00542702690857	0.000321458506097
0.0327479035052	0.00418266829121	0.000313245972005
0.0335094347007	0.0016653654386	0.000173446054726
0.034270962589	0.00132360461796	0.000140240622902
0.0350324870949	0.00083201576177	0.000130588061436
0.0357940081432	0.000988336731663	0.000129046293869
0.0365555256588	0.00239012855937	0.000166587869054
0.0373170395665	0.00393115980578	0.000244917342832
0.0380785497912	0.00420504698887	0.000250850109786
0.0388400562577	0.00323937785594	0.000199832608867
0.0396015588908	0.00217138887401	0.00014854193312
0.0403630576154	0.00157239186321	0.000140705413086
0.0411245523563	0.000816383117467	8.77617430555e-05
0.0418860430383	0.000760462700089	7.84813929758e-05
0.0426475295864	0.000741283000123	8.8024130836e-05
0.0434090119254	0.000635152284046	7.16495676733e-05
0.04417048998	0.00057225366077	6.20338700464e-05
0.0449319636752	0.000287101697987	5.42216499931e-05
0.0456934329358	0.00028742151741	4.85630226241e-05
0.0464548976867	0.000598704204877	6.87273192084e-05
0.0472163578526	0.00103912521597	8.26595870803e-05
0.0479778133584	0.000818372260499	0.000107471210549
0.0487392641291	0.00144082483517	9.88164308188e-05
0.0495007100893	0.00123708552889	9.05904933397e-05
0.0502621511641	0.00107094896442	8.05324459213e-05
0.0510235872781	0.000725906529217	6.73048742801e-05
0.0517850183564	0.000548209668749	5.16303217668e-05
0.0525464443236	0.00038530330572	4.64409881911e-05
0.0533078651047	0.000207010742011	3.41879417091e-05
0.0540692806246	0.000241561348177	3.49157514171e-05
0.054830690808	0.000290054444367	3.26183530166e-05
0.0555920955799	0.000274877320812	3.84684071864e-05
0.056353494865	0.000273101873303	3.98407334543e-05
0.0571148885883	0.000269586864088	3.84290281779e-05
0.0578762766746	0.00027808846512	3.79582375608e-05
0.0586376590487	0.00046348958794	4.53564250369e-05
0.0593990356354	0.000497989219541	4.09816992085e-05
0.0601604063598	0.000581257269437	4.37067799732e-05
0.0609217711465	0.000260902169156	5.43552246768e-05
0.0616831299205	0.000338219727748	3.50937561471e-05
0.0624444826067	0.00027241156117	3.06129329134e-05
0.0632058291298	0.000184818710178	2.36587058821e-05
0.0639671694147	0.000137207292485	1.92634000954e-05
0.0647285033864	0.000116152942429	2.14704303017e-05
0.0654898309696	0.000149467059986	2.12669126517e-05
0.0662511520892	0.000143347774198	1.95862036092e-05
0.06701246667	0.000281243869962	2.48485663059e-05
0.067773774637	0.000238027881405	2.31297668408e-05
0.068535075915	0.000252767179166	2.31869273286e-05
0.0692963704289	0.000208860284644	2.41631412088e-05
0.0700576581035	0.000176651044966	2.11122183094e-05
0.0708189388637	0.000183712119273	1.81126868435e-05
0.0715802126343	0.000151266069085	1.69728991477e-05
0.0723414793402	0.000157415476287	1.57792345254e-05
0.0731027389064	0.000193231832177	1.78688144575e-05
0.0738639912575	0.000104939629419	1.49201518085e-05
0.0746252363186	8.99587064074e-05	1.14089039744e-05
0.0753864740145	0.000112387098534	1.24945886766e-05
0.07614770427	7.04415048817e-05	1.15427480277e-05
0.0769089270101	0.000115982587631	1.38612102921e-05
0.0776701421595	0.000120181252948	1.30959482561e-05
0.0784313496432	0.000142591322118	1.59468593643e-05
0.0791925493861	0.000145983757662	1.52473950315e-05
0.0799537413129	0.000178756642736	1.36000621431e-05
0.0807149253487	0.00015421095069	1.32699162703e-05
0.0814761014181	0.000193173408899	2.7226790435e-05
0.0822372694463	0.000142844426662	2.37453683727e-05
0.0829984293579	0.000118300800504	2.22327473367e-05
0.0837595810779	8.98644595748e-05	1.97582823894e-05
0.0845207245312	5.77324019115e-05	1.754488025e-05
0.0852818596426	5.74453241598e-05	1.79183852967e-05
0.086042986337	5.67487852378e-05	1.73353871105e-05
0.0868041045393	1.36458795353e-05	1.416547839e-05
0.0875652141744	1.88693424215e-06	1.10232796618e-05
0.0883263151672	2.25955710765e-05	1.21727628763e-05
0.0890874074425	4.99519851328e-05	1.2843888835e-05
0.0898484909253	3.22200195206e-05	1.12964697568e-05
0.0906095655403	9.32208987934e-06	8.08414331272e-06
0.0913706312125	1.81808911586e-05	8.18899160184e-06
0.0921316878669	3.15964622437e-05	9.23456469324e-06
0.0928927354281	2.40845894689e-05	8.32492446123e-06
0.0936537738213	1.09662230723e-05	6.68279293134e-06
0.0944148029712	9.67157643789e-06	5.93672713376e-06
0.0951758228027	1.45390512617e-05	6.70253541831e-06
0.0959368332407	2.44400670133e-05	7.83556212322e-06
0.0966978342102	1.92372556884e-05	7.10862083978e-06
0.0974588256359	9.94836598154e-06	5.95482632731e-06
0.0982198074429	1.64350505911e-05	6.28192761648e-06
0.0989807795559	2.68668777017e-05	6.94866882367e-06
0.0997417419	2.24950858892e-05	6.17749805529e-06
0.1005026944	8.39757785863e-06	4.92887236317e-06
0.101263636981	6.29869161916e-06	4.68996256716e-06
0.102024569567	1.59953114746e-05	5.74527202677e-06
0.102785492084	1.99123710005e-05	6.06950195953e-06
0.103546404456	7.13891805029e-06	4.95521263734e-06
0.104307306609	-9.03903989024e-07	3.51842713075e-06
0.105068198467	9.42054155934e-06	4.175427258e-06
0.105829079956	1.91935848981e-05	5.13150512335e-06
0.106589950999	9.17681118664e-06	4.65270085633e-06
0.107350811522	2.33143363414e-06	3.53523436603e-06
0.108111661451	8.46332320346e-06	3.97954435066e-06
0.108872500709	1.45841539567e-05	4.56655566686e-06
0.109633329221	1.10330858327e-05	4.29875188415e-06
0.110394146914	2.78628665254e-06	3.45150165266e-06
0.111154953711	1.91775725806e-06	3.1962530859e-06
0.111915749537	8.16427983916e-06	3.69571589942e-06
0.112676534318	1.0239877067e-05	3.8895260203e-06
0.113437307978	2.06296136343e-06	3.40221098777e-06
0.114198070442	-1.67068634767e-06	2.4392718238e-06
0.114958821636	2.31044411856e-06	2.82478539513e-06
0.115719561483	8.1688275149e-06	3.7764323891e-06
0.116480289909	8.85653481116e-06	3.83254387252e-06
0.117241006839	2.14160366305e-06	3.27187537239e-06
0.118001712198	3.75721409242e-07	2.86653974573e-06
0.118762405911	3.42062714586e-06	3.10958054198e-06
0.119523087902	2.08253088043e-06	3.21228438128e-06
0.120283758097	-6.98532144324e-07	2.94625540671e-06
0.12104441642	1.77683048135e-06	2.48404806439e-06
0.121805062797	4.86350895992e-06	2.62953687822e-06
0.122565697152	7.45489123802e-06	3.19287685899e-06
0.12332631941	7.48991772469e-06	3.05954836791e-06
0.124086929496	1.48980254251e-06	2.69963669999e-06
0.124847527336	-2.10373955118e-07	2.73431851873e-06
0.125608112853	2.27459283381e-06	2.84115647474e-06
0.126368685974	-1.95575930899e-06	3.64532740677e-06
0.127129246622	-1.45916559999e-06	2.5525836291e-06
0.127889794723	3.74133397772e-07	1.72389403082e-06
0.128650330203	1.22535325815e-06	1.30134032855e-06
0.129410852984	1.45328791196e-06	1.36406682299e-06
0.130171362994	1.04411702438e-06	1.18893685638e-06
0.130931860156	4.32634814386e-07	7.24186580711e-07
0.131692344395	-7.99153725016e-08	3.92911939304e-07
0.132452815637	0.0	0.0
0.133213273807	0.0	0.0
0.133973718829	0.0	0.0
0.134734150628	0.0	0.0
0.135494569129	0.0	0.0
0.136254974258	0.0	0.0
0.137015365939	0.0	0.0
0.137775744097	0.0	0.0
0.138536108657	0.0	0.0
0.139296459544	0.0	0.0
0.140056796683	0.0	0.0
0.140817119999	0.0	0.0
0.141577429417	0.0	0.0
0.142337724862	0.0	0.0
0.143098006259	-2.92847586158e-07	2.07238646271e-07
0.143858273532	-6.40261734552e-08	5.10936507744e-07
0.144618526607	1.56213668178e-06	1.00999801378e-06
0.145378765409	2.65315898279e-06	1.31281678223e-06
0.146138989863	2.90242349726e-06	1.36952609222e-06
0.146899199893	3.07906724e-06	1.40693113992e-06
0.147659395425	2.08671641669e-06	1.15524512403e-06
0.148419576384	1.5098257473e-06	9.80146041971e-07
0.149179742694	1.63090986851e-06	1.01609198158e-06
0.14993989428	2.44979055694e-06	1.24216374319e-06
0.150700031069	2.05382795446e-06	1.13448388219e-06
0.151460152983	-9.40579905134e-08	1.55623760735e-06
0.152220259949	-6.13220043543e-07	8.74838476054e-07
0.152980351892	-1.57455041173e-07	2.71583986897e-07
0.153740428736	0.0	0.0
0.154500490407	0.0	0.0
0.155260536828	0.0	0.0
0.156020567927	0.0	0.0
0.156780583626	0.0	0.0
0.157540583852	0.0	0.0
0.15830056853	0.0	0.0
0.159060537584	0.0	0.0
0.159820490939	0.0	0.0
0.16058042852	0.0	0.0
0.161340350253	0.0	0.0
0.162100256062	0.0	0.0
0.162860145873	0.0	0.0
0.16362001961	0.0	0.0
0.164379877198	-3.95289599089e-07	4.69987479838e-07
0.165139718563	-4.6484178131e-07	1.11506424117e-06
0.165899543628	3.07369424816e-07	3.1365868889e-06
0.166659352321	1.4418802321e-06	9.0391997669e-07
0.167419144564	2.4028285911e-06	1.16423076553e-06
0.168178920285	2.74068878803e-06	1.2405786905e-06
0.168938679406	1.14378364969e-06	7.99627331364e-07
