#Initialized GISAXS Reduction. Version 0.21
#Date: 15. May 2017 10:26AM
#Author: Dominique Dresen
#Contact: Dominique.Dresen@uni-koeln.de
#Loading DresenDisch_DD191_1_1_18156.dat
#Loading 1 files
#Loaded: ./DresenDisch_DD191_1_1_18156.1.tif
#Merging data
#Saving data to DirectBeam.h5
#Saved data to DirectBeam.h5
#Plotting data.
#q/A-1	I/a.u.	sI/a.u.
-0.248361722774	2.0	1.41421356237
-0.247898920452	6.0	2.44948974278
-0.247436110848	8.0	2.82842712475
-0.246973293978	1.0	1.0
-0.204828285519	1.0	1.0
-0.164489007355	1.0	1.0
-0.142680693365	1.0	1.0
-0.135254395608	1.0	1.0
-0.12968399925	1.0	1.0
-0.125970094279	1.0	1.0
-0.125041580612	1.0	1.0
-0.120863088144	1.0	1.0
-0.107861532007	1.0	1.0
-0.104610741425	1.0	1.0
-0.102753078602	1.0	1.0
-0.100430931959	1.0	1.0
-0.0981087112299	1.0	1.0
-0.0967153439421	1.0	1.0
-0.0943930082315	1.0	1.0
-0.0934640543523	1.0	1.0
-0.0920706028811	1.0	1.0
-0.0906771269554	1.0	1.0
-0.0902126296097	1.0	1.0
-0.0878901032189	1.0	1.0
-0.0874255901041	1.0	1.0
-0.0864965561473	1.0	1.0
-0.0851029860996	1.0	1.0
-0.0827803192996	1.0	1.0
-0.0809221417971	1.0	1.0
-0.0772056730172	2.0	1.41421356237
-0.0762765327583	1.0	1.0
-0.0758119592446	1.0	1.0
-0.0748828055172	1.0	1.0
-0.0725598827548	4.0	2.0
-0.0720952917215	1.0	1.0
-0.0711661032837	1.0	1.0
-0.0683784879876	1.0	1.0
-0.0665200372342	1.0	1.0
-0.0632676733352	2.0	1.41421356237
-0.0628030423398	1.0	1.0
-0.0600152179092	1.0	1.0
-0.0572273296887	2.0	1.41421356237
-0.0521160454362	2.0	1.41421356237
-0.0502573494919	1.0	1.0
-0.0497926717616	1.0	1.0
-0.049327992561	2.0	1.41421356237
-0.0483986298039	1.0	1.0
-0.0465398872498	1.0	1.0
-0.0460751981413	1.0	1.0
-0.0456105076723	2.0	1.41421356237
-0.0451458158565	2.0	1.41421356237
-0.0446811227075	1.0	1.0
-0.0442164282391	1.0	1.0
-0.0437517324651	2.0	1.41421356237
-0.0428223370549	2.0	1.41421356237
-0.0423576374461	4.0	2.0
-0.0418929365865	3.0	1.73205080757
-0.0414282344898	4.0	2.0
-0.0409635311698	3.0	1.73205080757
-0.0400341209144	1.0	1.0
-0.0395694140066	2.0	1.41421356237
-0.0391047059302	2.0	1.41421356237
-0.0377105748274	2.0	1.41421356237
-0.0372458622142	2.0	1.41421356237
-0.0367811485012	1.0	1.0
-0.0363164337019	1.0	1.0
-0.0358517178302	1.0	1.0
-0.0344575639176	3.0	1.73205080757
-0.0339928438932	2.0	1.41421356237
-0.033528122865	1.0	1.0
-0.0330634008467	1.0	1.0
-0.032598677852	3.0	1.73205080757
-0.0321339538945	2.0	1.41421356237
-0.0316692289881	1.0	1.0
-0.0312045031465	1.0	1.0
-0.0307397763833	1.0	1.0
-0.0302750487123	3.0	1.73205080757
-0.0298103201472	1.0	1.0
-0.0293455907017	1.0	1.0
-0.0284161292246	3.0	1.73205080757
-0.0279513972204	3.0	1.73205080757
-0.0274866643907	2.0	1.41421356237
-0.0270219307493	2.0	1.41421356237
-0.0265571963099	3.0	1.73205080757
-0.0260924610861	4.0	2.0
-0.0256277250918	3.0	1.73205080757
-0.0251629883406	2.0	1.41421356237
-0.0246982508462	2.0	1.41421356237
-0.0242335126225	3.0	1.73205080757
-0.023768773683	2.0	1.41421356237
-0.0233040340416	4.0	2.0
-0.022839293712	3.0	1.73205080757
-0.0223745527079	2.0	1.41421356237
-0.0219098110429	3.0	1.73205080757
-0.0214450687309	5.0	2.2360679775
-0.0209803257855	3.0	1.73205080757
-0.0200508380497	3.0	1.73205080757
-0.0191213479451	1.0	1.0
-0.0186566020389	1.0	1.0
-0.0181918555817	1.0	1.0
-0.0177271085872	1.0	1.0
-0.0172623610692	2.0	1.41421356237
-0.0167976130414	1.0	1.0
-0.0163328645174	3.0	1.73205080757
-0.0158681155111	5.0	2.2360679775
-0.0154033660361	6.0	2.44948974278
-0.0149386161062	1.0	1.0
-0.0144738657351	1.0	1.0
-0.0140091149366	5.0	2.2360679775
-0.0135443637243	3.0	1.73205080757
-0.013079612112	3.0	1.73205080757
-0.0126148601133	1.0	1.0
-0.0121501077421	2.0	1.41421356237
-0.0116853550121	2.0	1.41421356237
-0.011220601937	6.0	2.44948974278
-0.0107558485304	3.0	1.73205080757
-0.0102910948062	5.0	2.2360679775
-0.00982634077808	9.0	3.0
-0.00936158645972	5.0	2.2360679775
-0.00889683186487	10.0	3.16227766017
-0.00843207700727	4.0	2.0
-0.00796732190062	12.0	3.46410161514
-0.00750256655866	12.0	3.46410161514
-0.00703781099513	10.0	3.16227766017
-0.00657305522373	9.0	3.0
-0.0061082992582	9.0	3.0
-0.00564354311227	10.0	3.16227766017
-0.00517878679965	13.0	3.60555127546
-0.00471403033409	14.0	3.74165738677
-0.0042492737293	24.0	4.89897948557
-0.003784516999	19.0	4.35889894354
-0.00331976015694	28.0	5.29150262213
-0.00285500321683	46.0	6.78232998313
-0.00239024619239	57.0	7.54983443527
-0.00192548909736	182.0	13.4907375632
-0.00146073194546	31290.0	176.889796201
-0.000995974750422	188674.0	434.366204947
-0.000531217525967	345835.0	588.077375861
-6.64602858216e-05	397919.0	630.808211741
0.000398296956286	417710.0	646.304881615
0.000863054186631	345865.0	588.102882156
0.00132781139149	145713.0	381.723722082
0.00179256855712	3465.0	58.864250611
0.00225732566982	102.0	10.0995049384
0.00272208271585	71.0	8.42614977318
0.00318683968148	33.0	5.74456264654
0.00365159655299	18.0	4.24264068712
0.00411635331665	15.0	3.87298334621
0.00458110995873	17.0	4.12310562562
0.00504586646552	12.0	3.46410161514
0.00551062282328	16.0	4.0
0.00597537901828	8.0	2.82842712475
0.00644013503681	16.0	4.0
0.00690489086513	10.0	3.16227766017
0.00736964648952	5.0	2.2360679775
0.00783440189625	8.0	2.82842712475
0.00829915707159	7.0	2.64575131106
0.00876391200183	8.0	2.82842712475
0.00922866667322	8.0	2.82842712475
0.00969342107206	9.0	3.0
0.0101581751846	5.0	2.2360679775
0.0106229289971	1.0	1.0
0.0110876824959	6.0	2.44948974278
0.0115524356673	6.0	2.44948974278
0.0120171884974	6.0	2.44948974278
0.0124819409726	5.0	2.2360679775
0.0129466930792	6.0	2.44948974278
0.0134114448034	6.0	2.44948974278
0.0138761961315	7.0	2.64575131106
0.0143409470498	4.0	2.0
0.0148056975445	4.0	2.0
0.015270447602	3.0	1.73205080757
0.0157351972085	4.0	2.0
0.0161999463502	2.0	1.41421356237
0.0166646950136	3.0	1.73205080757
0.0171294431847	1.0	1.0
0.0175941908499	2.0	1.41421356237
0.0180589379956	1.0	1.0
0.0185236846078	3.0	1.73205080757
0.018988430673	2.0	1.41421356237
0.0194531761774	7.0	2.64575131106
0.0199179211073	2.0	1.41421356237
0.0208474091886	6.0	2.44948974278
0.0213121523126	4.0	2.0
0.0217768948071	3.0	1.73205080757
0.0222416366585	1.0	1.0
0.0227063778531	4.0	2.0
0.023171118377	3.0	1.73205080757
0.0236358582167	2.0	1.41421356237
0.0241005973583	4.0	2.0
0.0245653357881	2.0	1.41421356237
0.0250300734925	2.0	1.41421356237
0.0254948104576	2.0	1.41421356237
0.0259595466698	1.0	1.0
0.0264242821153	3.0	1.73205080757
0.0268890167805	6.0	2.44948974278
0.0278184837148	3.0	1.73205080757
0.0282832159565	3.0	1.73205080757
0.0287479473629	6.0	2.44948974278
0.0292126779204	4.0	2.0
0.0296774076151	1.0	1.0
0.0301421364333	1.0	1.0
0.0306068643614	1.0	1.0
0.0310715913857	2.0	1.41421356237
0.0315363174923	1.0	1.0
0.0329304901693	3.0	1.73205080757
0.0333952124683	3.0	1.73205080757
0.0338599337811	3.0	1.73205080757
0.0347893733931	1.0	1.0
0.0352540916649	3.0	1.73205080757
0.0357188088956	2.0	1.41421356237
0.0361835250715	1.0	1.0
0.0366482401789	1.0	1.0
0.037112954204	2.0	1.41421356237
0.0380423789525	1.0	1.0
0.0385070896485	1.0	1.0
0.0389717992074	3.0	1.73205080757
0.0394365076154	3.0	1.73205080757
0.0399012148589	2.0	1.41421356237
0.040365920924	2.0	1.41421356237
0.0408306257972	1.0	1.0
0.0412953294646	1.0	1.0
0.0417600319126	2.0	1.41421356237
0.0422247331273	4.0	2.0
0.0426894330953	3.0	1.73205080757
0.0431541318026	5.0	2.2360679775
0.0436188292355	2.0	1.41421356237
0.0440835253805	1.0	1.0
0.0450129137514	2.0	1.41421356237
0.0454776059499	1.0	1.0
0.0464069863045	3.0	1.73205080757
0.0468716744331	1.0	1.0
0.0473363611777	1.0	1.0
0.0482657304599	2.0	1.41421356237
0.04873041297	1.0	1.0
0.0491950940412	3.0	1.73205080757
0.0510538036625	1.0	1.0
0.0524478200978	1.0	1.0
0.0533771566677	2.0	1.41421356237
0.0538418225954	1.0	1.0
0.0547711496678	1.0	1.0
0.0557004702714	1.0	1.0
0.0566297842965	1.0	1.0
0.0603469724182	1.0	1.0
0.0626701575336	1.0	1.0
0.0663871567913	1.0	1.0
0.0668517730227	1.0	1.0
0.0673163872806	1.0	1.0
0.0705686306724	1.0	1.0
0.0710332286478	2.0	1.41421356237
0.0798601761366	1.0	1.0
0.0807892806313	1.0	1.0
0.0868282224476	2.0	1.41421356237
0.0872927388781	1.0	1.0
0.0882217639964	1.0	1.0
0.0933312130434	1.0	1.0
0.0951891128439	1.0	1.0
0.0956535808056	1.0	1.0
0.0970469676996	1.0	1.0
0.0975114242883	1.0	1.0
0.0998336637962	1.0	1.0
0.100298102915	2.0	1.41421356237
0.105871137583	1.0	1.0
0.106335537161	1.0	1.0
0.112372441198	1.0	1.0
0.120266004188	1.0	1.0
0.121658881384	1.0	1.0
0.123051726287	1.0	1.0
0.12537306169	1.0	1.0
0.125837317732	1.0	1.0
0.13094388626	1.0	1.0
0.135121641082	1.0	1.0
0.138370783342	1.0	1.0
0.142083843735	1.0	1.0
0.143012067219	1.0	1.0
0.143476172644	1.0	1.0
0.144404370792	1.0	1.0
0.146260715896	1.0	1.0
0.147188862635	1.0	1.0
0.152293356569	1.0	1.0
0.15971710062	1.0	1.0
