#  5.01300001144409E+0000  6299
#  5.03900001198053E+0000  6181
#  5.06500001251698E+0000  6179
#  5.09100001305342E+0000  6164
#  5.11700001358986E+0000  6143
#  5.14300001412630E+0000  6013
#  5.16900001466274E+0000  6029
#  5.19500001519918E+0000  5982
#  5.22100001573563E+0000  6011
#  5.24700001627207E+0000  6040
#  5.27300001680851E+0000  6111
#  5.29900001734495E+0000  6185
#  5.32500001788139E+0000  6071
#  5.35100001841784E+0000  6070
#  5.37700001895428E+0000  5931
#  5.40300001949072E+0000  5964
#  5.42900002002716E+0000  5916
#  5.45500002056360E+0000  6128
#  5.48100002110004E+0000  6016
#  5.50700002163649E+0000  5931
#  5.53300002217293E+0000  5900
#  5.55900002270937E+0000  5866
#  5.58500002324581E+0000  5935
#  5.61100002378225E+0000  5881
#  5.63700002431870E+0000  5843
#  5.66300002485514E+0000  5843
#  5.68900002539158E+0000  5897
#  5.71500002592802E+0000  5758
#  5.74100002646446E+0000  5803
#  5.76700002700090E+0000  5843
#  5.79300002753735E+0000  5796
#  5.81900002807379E+0000  5701
#  5.84500002861023E+0000  5745
#  5.87100002914667E+0000  5687
#  5.89700002968311E+0000  5706
#  5.92300003021955E+0000  5707
#  5.94900003075600E+0000  5726
#  5.97500003129244E+0000  5710
#  6.00100003182888E+0000  5697
#  6.02700003236532E+0000  5590
#  6.05300003290176E+0000  5618
#  6.07900003343821E+0000  5747
#  6.10500003397465E+0000  5648
#  6.13100003451109E+0000  5530
#  6.15700003504753E+0000  5572
#  6.18300003558397E+0000  5640
#  6.20900003612041E+0000  5587
#  6.23500003665686E+0000  5608
#  6.26100003719330E+0000  5606
#  6.28700003772974E+0000  5449
#  6.31300003826618E+0000  5404
#  6.33900003880262E+0000  5450
#  6.36500003933907E+0000  5470
#  6.39100003987551E+0000  5474
#  6.41700004041195E+0000  5511
#  6.44300004094839E+0000  5501
#  6.46900004148483E+0000  5409
#  6.49500004202127E+0000  5371
#  6.52100004255772E+0000  5353
#  6.54700004309416E+0000  5390
#  6.57300004363060E+0000  5427
#  6.59900004416704E+0000  5390
#  6.62500004470348E+0000  5353
#  6.65100004523993E+0000  5326
#  6.67700004577637E+0000  5300
#  6.70300004631281E+0000  5316
#  6.72900004684925E+0000  5267
#  6.75500004738569E+0000  5336
#  6.78100004792213E+0000  5343
#  6.80700004845858E+0000  5227
#  6.83300004899502E+0000  5125
#  6.85900004953146E+0000  5111
#  6.88500005006790E+0000  5150
#  6.91100005060434E+0000  5135
#  6.93700005114079E+0000  5101
#  6.96300005167723E+0000  5114
#  6.98900005221367E+0000  5122
#  7.01500005275011E+0000  5100
#  7.04100005328655E+0000  5064
#  7.06700005382299E+0000  5022
#  7.09300005435944E+0000  5037
#  7.11900005489588E+0000  5067
#  7.14500005543232E+0000  4974
#  7.17100005596876E+0000  5045
#  7.19700005650520E+0000  4950
#  7.22300005704165E+0000  4892
#  7.24900005757809E+0000  4888
#  7.27500005811453E+0000  4868
#  7.30100005865097E+0000  4845
#  7.32700005918741E+0000  4752
#  7.35300005972385E+0000  4814
#  7.37900006026030E+0000  4857
#  7.40500006079674E+0000  4807
#  7.43100006133318E+0000  4734
#  7.45700006186962E+0000  4884
#  7.48300006240606E+0000  4729
#  7.50900006294250E+0000  4774
#  7.53500006347895E+0000  4625
#  7.56100006401539E+0000  4686
#  7.58700006455183E+0000  4731
#  7.61300006508827E+0000  4720
#  7.63900006562471E+0000  4649
#  7.66500006616116E+0000  4716
#  7.69100006669760E+0000  4621
#  7.71700006723404E+0000  4566
#  7.74300006777048E+0000  4738
#  7.76900006830692E+0000  4600
#  7.79500006884336E+0000  4534
#  7.82100006937981E+0000  4598
#  7.84700006991625E+0000  4493
#  7.87300007045269E+0000  4642
#  7.89900007098913E+0000  4556
#  7.92500007152557E+0000  4518
#  7.95100007206202E+0000  4393
#  7.97700007259846E+0000  4478
#  8.00300007313490E+0000  4454
#  8.02900007367134E+0000  4344
#  8.05500007420778E+0000  4371
#  8.08100007474422E+0000  4422
#  8.10700007528067E+0000  4395
#  8.13300007581711E+0000  4283
#  8.15900007635355E+0000  4305
#  8.18500007688999E+0000  4304
#  8.21100007742643E+0000  4235
#  8.23700007796288E+0000  4211
#  8.26300007849932E+0000  4364
#  8.28900007903576E+0000  4295
#  8.31500007957220E+0000  4368
#  8.34100008010864E+0000  4273
#  8.36700008064508E+0000  4243
#  8.39300008118153E+0000  4280
#  8.41900008171797E+0000  4158
#  8.44500008225441E+0000  4183
#  8.47100008279085E+0000  4229
#  8.49700008332729E+0000  4275
#  8.52300008386374E+0000  4197
#  8.54900008440018E+0000  4175
#  8.57500008493662E+0000  4149
#  8.60100008547306E+0000  4101
#  8.62700008600950E+0000  4045
#  8.65300008654594E+0000  4125
#  8.67900008708239E+0000  4113
#  8.70500008761883E+0000  4077
#  8.73100008815527E+0000  4108
#  8.75700008869171E+0000  4125
#  8.78300008922815E+0000  4188
#  8.80900008976460E+0000  4205
#  8.83500009030104E+0000  4155
#  8.86100009083748E+0000  4106
#  8.88700009137392E+0000  4112
#  8.91300009191036E+0000  4120
#  8.93900009244680E+0000  4037
#  8.96500009298325E+0000  3959
#  8.99100009351969E+0000  3974
#  9.01700009405613E+0000  4018
#  9.04300009459257E+0000  4067
#  9.06900009512901E+0000  4034
#  9.09500009566545E+0000  3915
#  9.12100009620190E+0000  3929
#  9.14700009673834E+0000  4027
#  9.17300009727478E+0000  4048
#  9.19900009781122E+0000  4004
#  9.22500009834766E+0000  3971
#  9.25100009888411E+0000  3984
#  9.27700009942055E+0000  3991
#  9.30300009995699E+0000  3943
#  9.32900010049343E+0000  3958
#  9.35500010102987E+0000  3958
#  9.38100010156631E+0000  3885
#  9.40700010210276E+0000  3890
#  9.43300010263920E+0000  3948
#  9.45900010317564E+0000  3973
#  9.48500010371208E+0000  4044
#  9.51100010424852E+0000  3930
#  9.53700010478497E+0000  3920
#  9.56300010532141E+0000  3960
#  9.58900010585785E+0000  3883
#  9.61500010639429E+0000  3808
#  9.64100010693073E+0000  3835
#  9.66700010746717E+0000  3833
#  9.69300010800362E+0000  3811
#  9.71900010854006E+0000  3769
#  9.74500010907650E+0000  3724
#  9.77100010961294E+0000  3832
#  9.79700011014938E+0000  3896
#  9.82300011068583E+0000  3909
#  9.84900011122227E+0000  3800
#  9.87500011175871E+0000  3748
#  9.90100011229515E+0000  3748
#  9.92700011283159E+0000  3739
#  9.95300011336803E+0000  3792
#  9.97900011390448E+0000  3792
#  1.00050001144409E+0001  3837
#  1.00310001149773E+0001  3734
#  1.00570001155138E+0001  3755
#  1.00830001160502E+0001  3724
#  1.01090001165866E+0001  3636
#  1.01350001171231E+0001  3824
#  1.01610001176595E+0001  3764
#  1.01870001181960E+0001  3738
#  1.02130001187324E+0001  3665
#  1.02390001192688E+0001  3739
#  1.02650001198053E+0001  3632
#  1.02910001203417E+0001  3617
#  1.03170001208782E+0001  3727
#  1.03430001214146E+0001  3642
#  1.03690001219511E+0001  3589
#  1.03950001224875E+0001  3640
#  1.04210001230239E+0001  3695
#  1.04470001235604E+0001  3671
#  1.04730001240968E+0001  3740
#  1.04990001246333E+0001  3662
#  1.05250001251697E+0001  3607
#  1.05510001257062E+0001  3665
#  1.05770001262426E+0001  3681
#  1.06030001267790E+0001  3737
#  1.06290001273155E+0001  3707
#  1.06550001278519E+0001  3582
#  1.06810001283884E+0001  3573
#  1.07070001289248E+0001  3630
#  1.07330001294612E+0001  3698
#  1.07590001299977E+0001  3671
#  1.07850001305341E+0001  3647
#  1.08110001310706E+0001  3619
#  1.08370001316070E+0001  3583
#  1.08630001321435E+0001  3552
#  1.08890001326799E+0001  3623
#  1.09150001332163E+0001  3508
#  1.09410001337528E+0001  3555
#  1.09670001342892E+0001  3691
#  1.09930001348257E+0001  3542
#  1.10190001353621E+0001  3538
#  1.10450001358985E+0001  3537
#  1.10710001364350E+0001  3578
#  1.10970001369714E+0001  3552
#  1.11230001375079E+0001  3526
#  1.11490001380443E+0001  3568
#  1.11750001385808E+0001  3595
#  1.12010001391172E+0001  3661
#  1.12270001396536E+0001  3605
#  1.12530001401901E+0001  3539
#  1.12790001407265E+0001  3531
#  1.13050001412630E+0001  3559
#  1.13310001417994E+0001  3481
#  1.13570001423358E+0001  3534
#  1.13830001428723E+0001  3568
#  1.14090001434087E+0001  3566
#  1.14350001439452E+0001  3616
#  1.14610001444816E+0001  3600
#  1.14870001450181E+0001  3509
#  1.15130001455545E+0001  3430
#  1.15390001460909E+0001  3471
#  1.15650001466274E+0001  3519
#  1.15910001471638E+0001  3476
#  1.16170001477003E+0001  3509
#  1.16430001482367E+0001  3535
#  1.16690001487731E+0001  3470
#  1.16950001493096E+0001  3478
#  1.17210001498460E+0001  3489
#  1.17470001503825E+0001  3477
#  1.17730001509189E+0001  3533
#  1.17990001514554E+0001  3581
#  1.18250001519918E+0001  3536
#  1.18510001525282E+0001  3478
#  1.18770001530647E+0001  3456
#  1.19030001536011E+0001  3489
#  1.19290001541376E+0001  3494
#  1.19550001546740E+0001  3414
#  1.19810001552105E+0001  3422
#  1.20070001557469E+0001  3469
#  1.20330001562833E+0001  3426
#  1.20590001568198E+0001  3429
#  1.20850001573562E+0001  3431
#  1.21110001578927E+0001  3461
#  1.21370001584291E+0001  3525
#  1.21630001589655E+0001  3419
#  1.21890001595020E+0001  3430
#  1.22150001600384E+0001  3433
#  1.22410001605749E+0001  3483
#  1.22670001611113E+0001  3475
#  1.22930001616478E+0001  3427
#  1.23190001621842E+0001  3429
#  1.23450001627206E+0001  3544
#  1.23710001632571E+0001  3413
#  1.23970001637935E+0001  3485
#  1.24230001643300E+0001  3536
#  1.24490001648664E+0001  3414
#  1.24750001654028E+0001  3411
#  1.25010001659393E+0001  3471
#  1.25270001664757E+0001  3429
#  1.25530001670122E+0001  3411
#  1.25790001675486E+0001  3471
#  1.26050001680851E+0001  3585
#  1.26310001686215E+0001  3484
#  1.26570001691579E+0001  3386
#  1.26830001696944E+0001  3344
#  1.27090001702308E+0001  3427
#  1.27350001707673E+0001  3375
#  1.27610001713037E+0001  3494
#  1.27870001718401E+0001  3455
#  1.28130001723766E+0001  3488
#  1.28390001729130E+0001  3446
#  1.28650001734495E+0001  3462
#  1.28910001739859E+0001  3473
#  1.29170001745224E+0001  3383
#  1.29430001750588E+0001  3551
#  1.29690001755952E+0001  3372
#  1.29950001761317E+0001  3447
#  1.30210001766681E+0001  3442
#  1.30470001772046E+0001  3465
#  1.30730001777410E+0001  3473
#  1.30990001782774E+0001  3467
#  1.31250001788139E+0001  3543
#  1.31510001793503E+0001  3412
#  1.31770001798868E+0001  3385
#  1.32030001804232E+0001  3580
#  1.32290001809597E+0001  3573
#  1.32550001814961E+0001  3524
#  1.32810001820325E+0001  3459
#  1.33070001825690E+0001  3440
#  1.33330001831054E+0001  3520
#  1.33590001836419E+0001  3538
#  1.33850001841783E+0001  3529
#  1.34110001847147E+0001  3412
#  1.34370001852512E+0001  3473
#  1.34630001857876E+0001  3578
#  1.34890001863241E+0001  3489
#  1.35150001868605E+0001  3516
#  1.35410001873970E+0001  3534
#  1.35670001879334E+0001  3581
#  1.35930001884698E+0001  3512
#  1.36190001890063E+0001  3435
#  1.36450001895427E+0001  3524
#  1.36710001900792E+0001  3469
#  1.36970001906156E+0001  3490
#  1.37230001911521E+0001  3555
#  1.37490001916885E+0001  3559
#  1.37750001922249E+0001  3479
#  1.38010001927614E+0001  3471
#  1.38270001932978E+0001  3516
#  1.38530001938343E+0001  3509
#  1.38790001943707E+0001  3543
#  1.39050001949071E+0001  3420
#  1.39310001954436E+0001  3433
#  1.39570001959800E+0001  3503
#  1.39830001965165E+0001  3541
#  1.40090001970529E+0001  3558
#  1.40350001975894E+0001  3547
#  1.40610001981258E+0001  3475
#  1.40870001986622E+0001  3466
#  1.41130001991987E+0001  3478
#  1.41390001997351E+0001  3500
#  1.41650002002716E+0001  3554
#  1.41910002008080E+0001  3471
#  1.42170002013444E+0001  3456
#  1.42430002018809E+0001  3580
#  1.42690002024173E+0001  3603
#  1.42950002029538E+0001  3572
#  1.43210002034902E+0001  3557
#  1.43470002040267E+0001  3510
#  1.43730002045631E+0001  3515
#  1.43990002050995E+0001  3567
#  1.44250002056360E+0001  3521
#  1.44510002061724E+0001  3461
#  1.44770002067089E+0001  3532
#  1.45030002072453E+0001  3604
#  1.45290002077817E+0001  3583
#  1.45550002083182E+0001  3653
#  1.45810002088546E+0001  3500
#  1.46070002093911E+0001  3500
#  1.46330002099275E+0001  3529
#  1.46590002104640E+0001  3593
#  1.46850002110004E+0001  3574
#  1.47110002115368E+0001  3549
#  1.47370002120733E+0001  3526
#  1.47630002126097E+0001  3535
#  1.47890002131462E+0001  3613
#  1.48150002136826E+0001  3603
#  1.48410002142190E+0001  3573
#  1.48670002147555E+0001  3572
#  1.48930002152919E+0001  3505
#  1.49190002158284E+0001  3586
#  1.49450002163648E+0001  3556
#  1.49710002169013E+0001  3555
#  1.49970002174377E+0001  3575
 1.50230002179741E+0001  3588
 1.50490002185106E+0001  3570
 1.50750002190470E+0001  3597
 1.51010002195835E+0001  3647
 1.51270002201199E+0001  3609
 1.51530002206563E+0001  3560
 1.51790002211928E+0001  3699
 1.52050002217292E+0001  3658
 1.52310002222657E+0001  3594
 1.52570002228021E+0001  3643
 1.52830002233386E+0001  3669
 1.53090002238750E+0001  3684
 1.53350002244114E+0001  3578
 1.53610002249479E+0001  3655
 1.53870002254843E+0001  3606
 1.54130002260208E+0001  3766
 1.54390002265572E+0001  3682
 1.54650002270937E+0001  3550
 1.54910002276301E+0001  3619
 1.55170002281665E+0001  3576
 1.55430002287030E+0001  3556
 1.55690002292394E+0001  3663
 1.55950002297759E+0001  3697
 1.56210002303123E+0001  3737
 1.56470002308487E+0001  3801
 1.56730002313852E+0001  3611
 1.56990002319216E+0001  3662
 1.57250002324581E+0001  3805
 1.57510002329945E+0001  3749
 1.57770002335310E+0001  3762
 1.58030002340674E+0001  3776
 1.58290002346038E+0001  3683
 1.58550002351403E+0001  3766
 1.58810002356767E+0001  3744
 1.59070002362132E+0001  3755
 1.59330002367496E+0001  3640
 1.59590002372860E+0001  3674
 1.59850002378225E+0001  3701
 1.60110002383590E+0001  3729
 1.60370002388954E+0001  3660
 1.60630002394319E+0001  3715
 1.60890002399683E+0001  3680
 1.61150002405047E+0001  3758
 1.61410002410412E+0001  3725
 1.61670002415776E+0001  3717
 1.61930002421141E+0001  3779
 1.62190002426505E+0001  3807
 1.62450002431870E+0001  3740
 1.62710002437234E+0001  3698
 1.62970002442598E+0001  3748
 1.63230002447963E+0001  3678
 1.63490002453327E+0001  3704
 1.63750002458692E+0001  3818
 1.64010002464056E+0001  3863
 1.64270002469420E+0001  3811
 1.64530002474785E+0001  3774
 1.64790002480149E+0001  3789
 1.65050002485514E+0001  3810
 1.65310002490878E+0001  3804
 1.65570002496243E+0001  3867
 1.65830002501607E+0001  3894
 1.66090002506971E+0001  3837
 1.66350002512336E+0001  3804
 1.66610002517700E+0001  3764
 1.66870002523065E+0001  3804
 1.67130002528429E+0001  3923
 1.67390002533793E+0001  3831
 1.67650002539158E+0001  3786
 1.67910002544522E+0001  3897
 1.68170002549887E+0001  3864
 1.68430002555251E+0001  3792
 1.68690002560616E+0001  3876
 1.68950002565980E+0001  3980
 1.69210002571344E+0001  3937
 1.69470002576709E+0001  3861
 1.69730002582073E+0001  3863
 1.69990002587438E+0001  3893
 1.70250002592802E+0001  3878
 1.70510002598166E+0001  3882
 1.70770002603531E+0001  3872
 1.71030002608895E+0001  3871
 1.71290002614260E+0001  3944
 1.71550002619624E+0001  3930
 1.71810002624989E+0001  3932
 1.72070002630353E+0001  3966
 1.72330002635717E+0001  3931
 1.72590002641082E+0001  3961
 1.72850002646446E+0001  3910
 1.73110002651811E+0001  3930
 1.73370002657175E+0001  3953
 1.73630002662539E+0001  4131
 1.73890002667904E+0001  4124
 1.74150002673268E+0001  4046
 1.74410002678633E+0001  4010
 1.74670002683997E+0001  3875
 1.74930002689362E+0001  3839
 1.75190002694726E+0001  3943
 1.75450002700090E+0001  4040
 1.75710002705455E+0001  3978
 1.75970002710819E+0001  3981
 1.76230002716184E+0001  3959
 1.76490002721548E+0001  4176
 1.76750002726912E+0001  4040
 1.77010002732277E+0001  4086
 1.77270002737641E+0001  3992
 1.77530002743006E+0001  4187
 1.77790002748370E+0001  4102
 1.78050002753735E+0001  4067
 1.78310002759099E+0001  4142
 1.78570002764463E+0001  4047
 1.78830002769828E+0001  4025
 1.79090002775192E+0001  4208
 1.79350002780557E+0001  4080
 1.79610002785921E+0001  4217
 1.79870002791286E+0001  4139
 1.80130002796650E+0001  4124
 1.80390002802014E+0001  4075
 1.80650002807379E+0001  4051
 1.80910002812743E+0001  4222
 1.81170002818108E+0001  4200
 1.81430002823472E+0001  4142
 1.81690002828836E+0001  4079
 1.81950002834201E+0001  4016
 1.82210002839565E+0001  4261
 1.82470002844930E+0001  4289
 1.82730002850294E+0001  4205
 1.82990002855659E+0001  4326
 1.83250002861023E+0001  4302
 1.83510002866387E+0001  3990
 1.83770002871752E+0001  4027
 1.84030002877116E+0001  4133
 1.84290002882481E+0001  4288
 1.84550002887845E+0001  4257
 1.84810002893209E+0001  4222
 1.85070002898574E+0001  4135
 1.85330002903938E+0001  4217
 1.85590002909303E+0001  4127
 1.85850002914667E+0001  4121
 1.86110002920032E+0001  4222
 1.86370002925396E+0001  4203
 1.86630002930760E+0001  4198
 1.86890002936125E+0001  4191
 1.87150002941489E+0001  4162
 1.87410002946854E+0001  4140
 1.87670002952218E+0001  4206
 1.87930002957582E+0001  4219
 1.88190002962947E+0001  4136
 1.88450002968311E+0001  4212
 1.88710002973676E+0001  4238
 1.88970002979040E+0001  4219
 1.89230002984405E+0001  4201
 1.89490002989769E+0001  4217
 1.89750002995133E+0001  4108
 1.90010003000498E+0001  4168
 1.90270003005862E+0001  4216
 1.90530003011227E+0001  4157
 1.90790003016591E+0001  4200
 1.91050003021955E+0001  4178
 1.91310003027320E+0001  4172
 1.91570003032684E+0001  4230
 1.91830003038049E+0001  4280
 1.92090003043413E+0001  4171
 1.92350003048778E+0001  4101
 1.92610003054142E+0001  4161
 1.92870003059506E+0001  4235
 1.93130003064871E+0001  4133
 1.93390003070235E+0001  4188
 1.93650003075600E+0001  4302
 1.93910003080964E+0001  4259
 1.94170003086329E+0001  4228
 1.94430003091693E+0001  4251
 1.94690003097057E+0001  4276
 1.94950003102422E+0001  4234
 1.95210003107786E+0001  4263
 1.95470003113151E+0001  4225
 1.95730003118515E+0001  4119
 1.95990003123879E+0001  4157
 1.96250003129244E+0001  4186
 1.96510003134608E+0001  4239
 1.96770003139973E+0001  4313
 1.97030003145337E+0001  4297
 1.97290003150702E+0001  4222
 1.97550003156066E+0001  4247
 1.97810003161430E+0001  4404
 1.98070003166795E+0001  4371
 1.98330003172159E+0001  4315
 1.98590003177524E+0001  4266
 1.98850003182888E+0001  4373
 1.99110003188252E+0001  4342
 1.99370003193617E+0001  4255
 1.99630003198981E+0001  4284
 1.99890003204346E+0001  4376
 2.00150003209710E+0001  4329
 2.00410003215075E+0001  4332
 2.00670003220439E+0001  4375
 2.00930003225803E+0001  4319
 2.01190003231168E+0001  4404
 2.01450003236532E+0001  4279
 2.01710003241897E+0001  4367
 2.01970003247261E+0001  4374
 2.02230003252625E+0001  4294
 2.02490003257990E+0001  4384
 2.02750003263354E+0001  4394
 2.03010003268719E+0001  4356
 2.03270003274083E+0001  4392
 2.03530003279448E+0001  4375
 2.03790003284812E+0001  4357
 2.04050003290176E+0001  4386
 2.04310003295541E+0001  4475
 2.04570003300905E+0001  4403
 2.04830003306270E+0001  4464
 2.05090003311634E+0001  4438
 2.05350003316998E+0001  4343
 2.05610003322363E+0001  4426
 2.05870003327727E+0001  4349
 2.06130003333092E+0001  4461
 2.06390003338456E+0001  4452
 2.06650003343821E+0001  4378
 2.06910003349185E+0001  4645
 2.07170003354549E+0001  4431
 2.07430003359914E+0001  4640
 2.07690003365278E+0001  4554
 2.07950003370643E+0001  4397
 2.08210003376007E+0001  4544
 2.08470003381371E+0001  4496
 2.08730003386736E+0001  4491
 2.08990003392100E+0001  4517
 2.09250003397465E+0001  4640
 2.09510003402829E+0001  4572
 2.09770003408194E+0001  4544
 2.10030003413558E+0001  4586
 2.10290003418922E+0001  4453
 2.10550003424287E+0001  4584
 2.10810003429651E+0001  4533
 2.11070003435016E+0001  4553
 2.11330003440380E+0001  4621
 2.11590003445745E+0001  4529
 2.11850003451109E+0001  4536
 2.12110003456473E+0001  4532
 2.12370003461838E+0001  4533
 2.12630003467202E+0001  4525
 2.12890003472567E+0001  4482
 2.13150003477931E+0001  4496
 2.13410003483295E+0001  4535
 2.13670003488660E+0001  4561
 2.13930003494024E+0001  4637
 2.14190003499389E+0001  4571
 2.14450003504753E+0001  4536
 2.14710003510118E+0001  4608
 2.14970003515482E+0001  4600
 2.15230003520846E+0001  4542
 2.15490003526211E+0001  4685
 2.15750003531575E+0001  4608
 2.16010003536940E+0001  4571
 2.16270003542304E+0001  4563
 2.16530003547668E+0001  4566
 2.16790003553033E+0001  4482
 2.17050003558397E+0001  4580
 2.17310003563762E+0001  4617
 2.17570003569126E+0001  4556
 2.17830003574491E+0001  4623
 2.18090003579855E+0001  4649
 2.18350003585219E+0001  4631
 2.18610003590584E+0001  4568
 2.18870003595948E+0001  4542
 2.19130003601313E+0001  4658
 2.19390003606677E+0001  4629
 2.19650003612041E+0001  4550
 2.19910003617406E+0001  4632
 2.20170003622770E+0001  4657
 2.20430003628135E+0001  4598
 2.20690003633499E+0001  4584
 2.20950003638864E+0001  4643
 2.21210003644228E+0001  4669
 2.21470003649592E+0001  4595
 2.21730003654957E+0001  4643
 2.21990003660321E+0001  4709
 2.22250003665686E+0001  4624
 2.22510003671050E+0001  4617
 2.22770003676414E+0001  4655
 2.23030003681779E+0001  4682
 2.23290003687143E+0001  4705
 2.23550003692508E+0001  4630
 2.23810003697872E+0001  4539
 2.24070003703237E+0001  4521
 2.24330003708601E+0001  4642
 2.24590003713965E+0001  4694
 2.24850003719330E+0001  4680
 2.25110003724694E+0001  4668
 2.25370003730059E+0001  4621
 2.25630003735423E+0001  4602
 2.25890003740788E+0001  4605
 2.26150003746152E+0001  4663
 2.26410003751516E+0001  4584
 2.26670003756881E+0001  4595
 2.26930003762245E+0001  4678
 2.27190003767610E+0001  4595
 2.27450003772974E+0001  4566
 2.27710003778338E+0001  4733
 2.27970003783703E+0001  4702
 2.28230003789067E+0001  4662
 2.28490003794432E+0001  4666
 2.28750003799796E+0001  4687
 2.29010003805161E+0001  4670
 2.29270003810525E+0001  4669
 2.29530003815889E+0001  4631
 2.29790003821254E+0001  4618
 2.30050003826618E+0001  4717
 2.30310003831983E+0001  4582
 2.30570003837347E+0001  4644
 2.30830003842711E+0001  4685
 2.31090003848076E+0001  4590
 2.31350003853440E+0001  4634
 2.31610003858805E+0001  4742
 2.31870003864169E+0001  4632
 2.32130003869534E+0001  4566
 2.32390003874898E+0001  4564
 2.32650003880262E+0001  4678
 2.32910003885627E+0001  4622
 2.33170003890991E+0001  4563
 2.33430003896356E+0001  4702
 2.33690003901720E+0001  4635
 2.33950003907084E+0001  4616
 2.34210003912449E+0001  4638
 2.34470003917813E+0001  4532
 2.34730003923178E+0001  4528
 2.34990003928542E+0001  4645
 2.35250003933907E+0001  4602
 2.35510003939271E+0001  4559
 2.35770003944635E+0001  4736
 2.36030003950000E+0001  4658
 2.36290003955364E+0001  4507
 2.36550003960729E+0001  4564
 2.36810003966093E+0001  4525
 2.37070003971457E+0001  4744
 2.37330003976822E+0001  4639
 2.37590003982186E+0001  4640
 2.37850003987551E+0001  4559
 2.38110003992915E+0001  4627
 2.38370003998280E+0001  4581
 2.38630004003644E+0001  4544
 2.38890004009008E+0001  4666
 2.39150004014373E+0001  4683
 2.39410004019737E+0001  4572
 2.39670004025102E+0001  4537
 2.39930004030466E+0001  4629
 2.40190004035830E+0001  4593
 2.40450004041195E+0001  4532
 2.40710004046559E+0001  4557
 2.40970004051924E+0001  4626
 2.41230004057288E+0001  4589
 2.41490004062653E+0001  4571
 2.41750004068017E+0001  4558
 2.42010004073381E+0001  4531
 2.42270004078746E+0001  4617
 2.42530004084110E+0001  4597
 2.42790004089475E+0001  4527
 2.43050004094839E+0001  4519
 2.43310004100204E+0001  4558
 2.43570004105568E+0001  4601
 2.43830004110932E+0001  4645
 2.44090004116297E+0001  4570
 2.44350004121661E+0001  4480
 2.44610004127026E+0001  4518
 2.44870004132390E+0001  4532
 2.45130004137754E+0001  4507
 2.45390004143119E+0001  4483
 2.45650004148483E+0001  4491
 2.45910004153848E+0001  4469
 2.46170004159212E+0001  4461
 2.46430004164577E+0001  4481
 2.46690004169941E+0001  4477
 2.46950004175305E+0001  4444
 2.47210004180670E+0001  4495
 2.47470004186034E+0001  4587
 2.47730004191399E+0001  4542
 2.47990004196763E+0001  4486
 2.48250004202127E+0001  4435
 2.48510004207492E+0001  4451
 2.48770004212856E+0001  4548
 2.49030004218221E+0001  4527
 2.49290004223585E+0001  4454
 2.49550004228950E+0001  4406
 2.49810004234314E+0001  4458
 2.50070004239678E+0001  4564
 2.50330004245043E+0001  4585
 2.50590004250407E+0001  4428
 2.50850004255772E+0001  4366
 2.51110004261136E+0001  4392
 2.51370004266500E+0001  4442
 2.51630004271865E+0001  4403
 2.51890004277229E+0001  4399
 2.52150004282594E+0001  4457
 2.52410004287958E+0001  4451
 2.52670004293323E+0001  4410
 2.52930004298687E+0001  4458
 2.53190004304051E+0001  4478
 2.53450004309416E+0001  4434
 2.53710004314780E+0001  4478
 2.53970004320145E+0001  4496
 2.54230004325509E+0001  4471
 2.54490004330873E+0001  4474
 2.54750004336238E+0001  4470
 2.55010004341602E+0001  4458
 2.55270004346967E+0001  4573
 2.55530004352331E+0001  4447
 2.55790004357696E+0001  4540
 2.56050004363060E+0001  4536
 2.56310004368424E+0001  4496
 2.56570004373789E+0001  4482
 2.56830004379153E+0001  4450
 2.57090004384518E+0001  4412
 2.57350004389882E+0001  4480
 2.57610004395247E+0001  4431
 2.57870004400611E+0001  4605
 2.58130004405975E+0001  4550
 2.58390004411340E+0001  4498
 2.58650004416704E+0001  4516
 2.58910004422069E+0001  4521
 2.59170004427433E+0001  4400
 2.59430004432797E+0001  4608
 2.59690004438162E+0001  4381
 2.59950004443526E+0001  4484
 2.60210004448891E+0001  4508
 2.60470004454255E+0001  4512
 2.60730004459620E+0001  4567
 2.60990004464984E+0001  4555
 2.61250004470348E+0001  4585
 2.61510004475713E+0001  4476
 2.61770004481077E+0001  4543
 2.62030004486442E+0001  4576
 2.62290004491806E+0001  4595
 2.62550004497170E+0001  4426
 2.62810004502535E+0001  4417
 2.63070004507899E+0001  4465
 2.63330004513264E+0001  4543
 2.63590004518628E+0001  4490
 2.63850004523993E+0001  4523
 2.64110004529357E+0001  4508
 2.64370004534721E+0001  4566
 2.64630004540086E+0001  4441
 2.64890004545450E+0001  4490
 2.65150004550815E+0001  4503
 2.65410004556179E+0001  4384
 2.65670004561543E+0001  4515
 2.65930004566908E+0001  4464
 2.66190004572272E+0001  4584
 2.66450004577637E+0001  4626
 2.66710004583001E+0001  4578
 2.66970004588366E+0001  4646
 2.67230004593730E+0001  4609
 2.67490004599094E+0001  4481
 2.67750004604459E+0001  4484
 2.68010004609823E+0001  4525
 2.68270004615188E+0001  4531
 2.68530004620552E+0001  4615
 2.68790004625916E+0001  4616
 2.69050004631281E+0001  4669
 2.69310004636645E+0001  4601
 2.69570004642010E+0001  4599
 2.69830004647374E+0001  4516
 2.70090004652739E+0001  4545
 2.70350004658103E+0001  4655
 2.70610004663467E+0001  4614
 2.70870004668832E+0001  4583
 2.71130004674196E+0001  4534
 2.71390004679561E+0001  4547
 2.71650004684925E+0001  4595
 2.71910004690289E+0001  4586
 2.72170004695654E+0001  4488
 2.72430004701018E+0001  4505
 2.72690004706383E+0001  4572
 2.72950004711747E+0001  4568
 2.73210004717112E+0001  4545
 2.73470004722476E+0001  4494
 2.73730004727840E+0001  4490
 2.73990004733205E+0001  4509
 2.74250004738569E+0001  4566
 2.74510004743934E+0001  4564
 2.74770004749298E+0001  4560
 2.75030004754663E+0001  4573
 2.75290004760027E+0001  4537
 2.75550004765391E+0001  4601
 2.75810004770756E+0001  4596
 2.76070004776120E+0001  4608
 2.76330004781485E+0001  4590
 2.76590004786849E+0001  4503
 2.76850004792213E+0001  4461
 2.77110004797578E+0001  4556
 2.77370004802942E+0001  4606
 2.77630004808307E+0001  4612
 2.77890004813671E+0001  4558
 2.78150004819036E+0001  4559
 2.78410004824400E+0001  4538
 2.78670004829764E+0001  4517
 2.78930004835129E+0001  4438
 2.79190004840493E+0001  4573
 2.79450004845858E+0001  4488
 2.79710004851222E+0001  4529
 2.79970004856586E+0001  4563
 2.80230004861951E+0001  4562
 2.80490004867315E+0001  4504
 2.80750004872680E+0001  4614
 2.81010004878044E+0001  4607
 2.81270004883409E+0001  4633
 2.81530004888773E+0001  4575
 2.81790004894137E+0001  4518
 2.82050004899502E+0001  4497
 2.82310004904866E+0001  4593
 2.82570004910231E+0001  4498
 2.82830004915595E+0001  4594
 2.83090004920959E+0001  4516
 2.83350004926324E+0001  4527
 2.83610004931688E+0001  4488
 2.83870004937053E+0001  4670
 2.84130004942417E+0001  4585
 2.84390004947782E+0001  4614
 2.84650004953146E+0001  4588
 2.84910004958510E+0001  4647
 2.85170004963875E+0001  4639
 2.85430004969239E+0001  4627
 2.85690004974604E+0001  4568
 2.85950004979968E+0001  4579
 2.86210004985332E+0001  4692
 2.86470004990697E+0001  4586
 2.86730004996061E+0001  4575
 2.86990005001426E+0001  4676
 2.87250005006790E+0001  4692
 2.87510005012155E+0001  4523
 2.87770005017519E+0001  4587
 2.88030005022883E+0001  4632
 2.88290005028248E+0001  4644
 2.88550005033612E+0001  4689
 2.88810005038977E+0001  4692
 2.89070005044341E+0001  4688
 2.89330005049706E+0001  4637
 2.89590005055070E+0001  4621
 2.89850005060434E+0001  4678
 2.90110005065799E+0001  4591
 2.90370005071163E+0001  4675
 2.90630005076528E+0001  4592
 2.90890005081892E+0001  4582
 2.91150005087256E+0001  4722
 2.91410005092621E+0001  4781
 2.91670005097985E+0001  4739
 2.91930005103350E+0001  4788
 2.92190005108714E+0001  4732
 2.92450005114079E+0001  4722
 2.92710005119443E+0001  4718
 2.92970005124807E+0001  4838
 2.93230005130172E+0001  4798
 2.93490005135536E+0001  4753
 2.93750005140901E+0001  4790
 2.94010005146265E+0001  4787
 2.94270005151629E+0001  4852
 2.94530005156994E+0001  4911
 2.94790005162358E+0001  4914
 2.95050005167723E+0001  4811
 2.95310005173087E+0001  4966
 2.95570005178452E+0001  4998
 2.95830005183816E+0001  4986
 2.96090005189180E+0001  5012
 2.96350005194545E+0001  5014
 2.96610005199909E+0001  4899
 2.96870005205274E+0001  4973
 2.97130005210638E+0001  5006
 2.97390005216002E+0001  4988
 2.97650005221367E+0001  5011
 2.97910005226731E+0001  5044
 2.98170005232096E+0001  5131
 2.98430005237460E+0001  5162
 2.98690005242825E+0001  5140
 2.98950005248189E+0001  5169
 2.99210005253553E+0001  5184
 2.99470005258918E+0001  5084
 2.99730005264282E+0001  5072
 2.99990005269647E+0001  5187
 3.00250005275011E+0001  5194
 3.00510005280375E+0001  5190
 3.00770005285740E+0001  5246
 3.01030005291104E+0001  5219
 3.01290005296469E+0001  5196
 3.01550005301833E+0001  5282
 3.01810005307198E+0001  5301
 3.02070005312562E+0001  5254
 3.02330005317926E+0001  5289
 3.02590005323291E+0001  5287
 3.02850005328655E+0001  5304
 3.03110005334020E+0001  5260
 3.03370005339384E+0001  5193
 3.03630005344748E+0001  5199
 3.03890005350113E+0001  5175
 3.04150005355477E+0001  5164
 3.04410005360842E+0001  5197
 3.04670005366206E+0001  5152
 3.04930005371571E+0001  5204
 3.05190005376935E+0001  5204
 3.05450005382299E+0001  5152
 3.05710005387664E+0001  5151
 3.05970005393028E+0001  5111
 3.06230005398393E+0001  4999
 3.06490005403757E+0001  5107
 3.06750005409122E+0001  4939
 3.07010005414486E+0001  4942
 3.07270005419850E+0001  4996
 3.07530005425215E+0001  4948
 3.07790005430579E+0001  4881
 3.08050005435944E+0001  4752
 3.08310005441308E+0001  4805
 3.08570005446672E+0001  4847
 3.08830005452037E+0001  4744
 3.09090005457401E+0001  4673
 3.09350005462766E+0001  4693
 3.09610005468130E+0001  4737
 3.09870005473495E+0001  4675
 3.10130005478859E+0001  4674
 3.10390005484223E+0001  4544
 3.10650005489588E+0001  4561
 3.10910005494952E+0001  4629
 3.11170005500317E+0001  4692
 3.11430005505681E+0001  4429
 3.11690005511045E+0001  4576
 3.11950005516410E+0001  4517
 3.12210005521774E+0001  4396
 3.12470005527139E+0001  4525
 3.12730005532503E+0001  4531
 3.12990005537868E+0001  4482
 3.13250005543232E+0001  4450
 3.13510005548596E+0001  4415
 3.13770005553961E+0001  4423
 3.14030005559325E+0001  4362
 3.14290005564690E+0001  4477
 3.14550005570054E+0001  4362
 3.14810005575418E+0001  4520
 3.15070005580783E+0001  4455
 3.15330005586147E+0001  4452
 3.15590005591512E+0001  4453
 3.15850005596876E+0001  4345
 3.16110005602241E+0001  4377
 3.16370005607605E+0001  4298
 3.16630005612969E+0001  4242
 3.16890005618334E+0001  4281
 3.17150005623698E+0001  4323
 3.17410005629063E+0001  4398
 3.17670005634427E+0001  4324
 3.17930005639791E+0001  4281
 3.18190005645156E+0001  4314
 3.18450005650520E+0001  4231
 3.18710005655885E+0001  4297
 3.18970005661249E+0001  4254
 3.19230005666614E+0001  4156
 3.19490005671978E+0001  4174
 3.19750005677342E+0001  4261
 3.20010005682707E+0001  4205
 3.20270005688071E+0001  4229
 3.20530005693436E+0001  4272
 3.20790005698800E+0001  4228
 3.21050005704165E+0001  4244
 3.21310005709529E+0001  4263
 3.21570005714893E+0001  4182
 3.21830005720258E+0001  4181
 3.22090005725622E+0001  4212
 3.22350005730987E+0001  4213
 3.22610005736351E+0001  4217
 3.22870005741715E+0001  4233
 3.23130005747080E+0001  4261
 3.23390005752444E+0001  4227
 3.23650005757809E+0001  4177
 3.23910005763173E+0001  4206
 3.24170005768538E+0001  4211
 3.24430005773902E+0001  4219
 3.24690005779266E+0001  4204
 3.24950005784631E+0001  4154
 3.25210005789995E+0001  4139
 3.25470005795360E+0001  4121
 3.25730005800724E+0001  4111
 3.25990005806088E+0001  4131
 3.26250005811453E+0001  4092
 3.26510005816817E+0001  4093
 3.26770005822182E+0001  4184
 3.27030005827546E+0001  4147
 3.27290005832911E+0001  4093
 3.27550005838275E+0001  4124
 3.27810005843639E+0001  4134
 3.28070005849004E+0001  4139
 3.28330005854368E+0001  4190
 3.28590005859733E+0001  4146
 3.28850005865097E+0001  4097
 3.29110005870461E+0001  4159
 3.29370005875826E+0001  4196
 3.29630005881190E+0001  4184
 3.29890005886555E+0001  4176
 3.30150005891919E+0001  4176
 3.30410005897284E+0001  4156
 3.30670005902648E+0001  4110
 3.30930005908012E+0001  4115
 3.31190005913377E+0001  4143
 3.31450005918741E+0001  4220
 3.31710005924106E+0001  4064
 3.31970005929470E+0001  4087
 3.32230005934834E+0001  4120
 3.32490005940199E+0001  4081
 3.32750005945563E+0001  4054
 3.33010005950928E+0001  4137
 3.33270005956292E+0001  4073
 3.33530005961657E+0001  4134
 3.33790005967021E+0001  4095
 3.34050005972385E+0001  4157
 3.34310005977750E+0001  4206
 3.34570005983114E+0001  4090
 3.34830005988479E+0001  4158
 3.35090005993843E+0001  4356
 3.35350005999207E+0001  4246
 3.35610006004572E+0001  4251
 3.35870006009936E+0001  4127
 3.36130006015301E+0001  4217
 3.36390006020665E+0001  4212
 3.36650006026030E+0001  4193
 3.36910006031394E+0001  4361
 3.37170006036758E+0001  4195
 3.37430006042123E+0001  4294
 3.37690006047487E+0001  4214
 3.37950006052852E+0001  4256
 3.38210006058216E+0001  4423
 3.38470006063581E+0001  4366
 3.38730006068945E+0001  4357
 3.38990006074309E+0001  4380
 3.39250006079674E+0001  4387
 3.39510006085038E+0001  4285
 3.39770006090403E+0001  4333
 3.40030006095767E+0001  4343
 3.40290006101131E+0001  4302
 3.40550006106496E+0001  4278
 3.40810006111860E+0001  4484
 3.41070006117225E+0001  4473
 3.41330006122589E+0001  4523
 3.41590006127954E+0001  4481
 3.41850006133318E+0001  4458
 3.42110006138682E+0001  4419
 3.42370006144047E+0001  4630
 3.42630006149411E+0001  4705
 3.42890006154776E+0001  4623
 3.43150006160140E+0001  4524
 3.43410006165504E+0001  4627
 3.43670006170869E+0001  4635
 3.43930006176233E+0001  4708
 3.44190006181598E+0001  4706
 3.44450006186962E+0001  4940
 3.44710006192327E+0001  4940
 3.44970006197691E+0001  4830
 3.45230006203055E+0001  4999
 3.45490006208420E+0001  4965
 3.45750006213784E+0001  5022
 3.46010006219149E+0001  5139
 3.46270006224513E+0001  5195
 3.46530006229877E+0001  5213
 3.46790006235242E+0001  5184
 3.47050006240606E+0001  5158
 3.47310006245971E+0001  5257
 3.47570006251335E+0001  5347
 3.47830006256700E+0001  5385
 3.48090006262064E+0001  5460
 3.48350006267428E+0001  5610
 3.48610006272793E+0001  5669
 3.48870006278157E+0001  5689
 3.49130006283522E+0001  5708
 3.49390006288886E+0001  5805
 3.49650006294250E+0001  5924
 3.49910006299615E+0001  5927
 3.50170006304979E+0001  5926
 3.50430006310344E+0001  5990
 3.50690006315708E+0001  6032
 3.50950006321073E+0001  6151
 3.51210006326437E+0001  6211
 3.51470006331801E+0001  6196
 3.51730006337166E+0001  6261
 3.51990006342530E+0001  6354
 3.52250006347895E+0001  6414
 3.52510006353259E+0001  6398
 3.52770006358624E+0001  6508
 3.53030006363988E+0001  6654
 3.53290006369352E+0001  6571
 3.53550006374717E+0001  6530
 3.53810006380081E+0001  6568
 3.54070006385446E+0001  6573
 3.54330006390810E+0001  6592
 3.54590006396174E+0001  6578
 3.54850006401539E+0001  6537
 3.55110006406903E+0001  6415
 3.55370006412268E+0001  6593
 3.55630006417632E+0001  6521
 3.55890006422997E+0001  6469
 3.56150006428361E+0001  6590
 3.56410006433725E+0001  6522
 3.56670006439090E+0001  6406
 3.56930006444454E+0001  6424
 3.57190006449819E+0001  6482
 3.57450006455183E+0001  6401
 3.57710006460547E+0001  6278
 3.57970006465912E+0001  6081
 3.58230006471276E+0001  6027
 3.58490006476641E+0001  6138
 3.58750006482005E+0001  6003
 3.59010006487370E+0001  6027
 3.59270006492734E+0001  5817
 3.59530006498098E+0001  5707
 3.59790006503463E+0001  5591
 3.60050006508827E+0001  5677
 3.60310006514192E+0001  5577
 3.60570006519556E+0001  5440
 3.60830006524920E+0001  5275
 3.61090006530285E+0001  5272
 3.61350006535649E+0001  5117
 3.61610006541014E+0001  5146
 3.61870006546378E+0001  5103
 3.62130006551743E+0001  5165
 3.62390006557107E+0001  4934
 3.62650006562471E+0001  4951
 3.62910006567836E+0001  4935
 3.63170006573200E+0001  4859
 3.63430006578565E+0001  4692
 3.63690006583929E+0001  4651
 3.63950006589293E+0001  4470
 3.64210006594658E+0001  4419
 3.64470006600022E+0001  4374
 3.64730006605387E+0001  4321
 3.64990006610751E+0001  4390
 3.65250006616116E+0001  4263
 3.65510006621480E+0001  4259
 3.65770006626844E+0001  4264
 3.66030006632209E+0001  4209
 3.66290006637573E+0001  4158
 3.66550006642938E+0001  4039
 3.66810006648302E+0001  3992
 3.67070006653666E+0001  4002
 3.67330006659031E+0001  4042
 3.67590006664395E+0001  4009
 3.67850006669760E+0001  3958
 3.68110006675124E+0001  3838
 3.68370006680489E+0001  3912
 3.68630006685853E+0001  3916
 3.68890006691217E+0001  3837
 3.69150006696582E+0001  3839
 3.69410006701946E+0001  3829
 3.69670006707311E+0001  3803
 3.69930006712675E+0001  3678
 3.70190006718040E+0001  3771
 3.70450006723404E+0001  3758
 3.70710006728768E+0001  3701
 3.70970006734133E+0001  3656
 3.71230006739497E+0001  3644
 3.71490006744862E+0001  3700
 3.71750006750226E+0001  3707
 3.72010006755590E+0001  3683
 3.72270006760955E+0001  3628
 3.72530006766319E+0001  3657
 3.72790006771684E+0001  3612
 3.73050006777048E+0001  3665
 3.73310006782413E+0001  3697
 3.73570006787777E+0001  3575
 3.73830006793141E+0001  3542
 3.74090006798506E+0001  3560
 3.74350006803870E+0001  3477
 3.74610006809235E+0001  3436
 3.74870006814599E+0001  3388
 3.75130006819963E+0001  3364
 3.75390006825328E+0001  3451
 3.75650006830692E+0001  3446
 3.75910006836057E+0001  3389
 3.76170006841421E+0001  3350
 3.76430006846786E+0001  3329
 3.76690006852150E+0001  3309
 3.76950006857514E+0001  3238
 3.77210006862879E+0001  3180
 3.77470006868243E+0001  3242
 3.77730006873608E+0001  3218
 3.77990006878972E+0001  3140
 3.78250006884336E+0001  3158
 3.78510006889701E+0001  3165
 3.78770006895065E+0001  3158
 3.79030006900430E+0001  3134
 3.79290006905794E+0001  3125
 3.79550006911159E+0001  3113
 3.79810006916523E+0001  3108
 3.80070006921887E+0001  3091
 3.80330006927252E+0001  3071
 3.80590006932616E+0001  3121
 3.80850006937981E+0001  3147
 3.81110006943345E+0001  3140
 3.81370006948709E+0001  3097
 3.81630006954074E+0001  3158
 3.81890006959438E+0001  3170
 3.82150006964803E+0001  3063
 3.82410006970167E+0001  3043
 3.82670006975532E+0001  2997
 3.82930006980896E+0001  3041
 3.83190006986260E+0001  3079
 3.83450006991625E+0001  2981
 3.83710006996989E+0001  3003
 3.83970007002354E+0001  2969
 3.84230007007718E+0001  2872
 3.84490007013083E+0001  2992
 3.84750007018447E+0001  3028
 3.85010007023811E+0001  3016
 3.85270007029176E+0001  2983
 3.85530007034540E+0001  3022
 3.85790007039905E+0001  3054
 3.86050007045269E+0001  3005
 3.86310007050633E+0001  2977
 3.86570007055998E+0001  3016
 3.86830007061362E+0001  3032
 3.87090007066727E+0001  2972
 3.87350007072091E+0001  2902
 3.87610007077456E+0001  2907
 3.87870007082820E+0001  2981
 3.88130007088184E+0001  2984
 3.88390007093549E+0001  2983
 3.88650007098913E+0001  2977
 3.88910007104278E+0001  2867
 3.89170007109642E+0001  2849
 3.89430007115006E+0001  2910
 3.89690007120371E+0001  2908
 3.89950007125735E+0001  2989
 3.90210007131100E+0001  2770
 3.90470007136464E+0001  2913
 3.90730007141829E+0001  2819
 3.90990007147193E+0001  2877
 3.91250007152557E+0001  2910
 3.91510007157922E+0001  2921
 3.91770007163286E+0001  2926
 3.92030007168651E+0001  2919
 3.92290007174015E+0001  2814
 3.92550007179379E+0001  2864
 3.92810007184744E+0001  2744
 3.93070007190108E+0001  2750
 3.93330007195473E+0001  2905
 3.93590007200837E+0001  2861
 3.93850007206202E+0001  2850
 3.94110007211566E+0001  2857
 3.94370007216930E+0001  2900
 3.94630007222295E+0001  2875
 3.94890007227659E+0001  2846
 3.95150007233024E+0001  2808
 3.95410007238388E+0001  2796
 3.95670007243752E+0001  2850
 3.95930007249117E+0001  2890
 3.96190007254481E+0001  2807
 3.96450007259846E+0001  2874
 3.96710007265210E+0001  2873
 3.96970007270575E+0001  2770
 3.97230007275939E+0001  2828
 3.97490007281303E+0001  2704
 3.97750007286668E+0001  2786
 3.98010007292032E+0001  2884
 3.98270007297397E+0001  2904
 3.98530007302761E+0001  2971
 3.98790007308125E+0001  2881
 3.99050007313490E+0001  2798
 3.99310007318854E+0001  2756
 3.99570007324219E+0001  2741
 3.99830007329583E+0001  2765
 4.00090007334948E+0001  2763
 4.00350007340312E+0001  2784
 4.00610007345676E+0001  2806
 4.00870007351041E+0001  2792
 4.01130007356405E+0001  2744
 4.01390007361770E+0001  2768
 4.01650007367134E+0001  2814
 4.01910007372499E+0001  2797
 4.02170007377863E+0001  2790
 4.02430007383227E+0001  2796
 4.02690007388592E+0001  2781
 4.02950007393956E+0001  2754
 4.03210007399321E+0001  2793
 4.03470007404685E+0001  2787
 4.03730007410049E+0001  2750
 4.03990007415414E+0001  2792
 4.04250007420778E+0001  2784
 4.04510007426143E+0001  2775
 4.04770007431507E+0001  2815
 4.05030007436872E+0001  2787
 4.05290007442236E+0001  2741
 4.05550007447600E+0001  2756
 4.05810007452965E+0001  2820
 4.06070007458329E+0001  2825
 4.06330007463694E+0001  2796
 4.06590007469058E+0001  2842
 4.06850007474422E+0001  2826
 4.07110007479787E+0001  2779
 4.07370007485151E+0001  2766
 4.07630007490516E+0001  2791
 4.07890007495880E+0001  2886
 4.08150007501245E+0001  2888
 4.08410007506609E+0001  2768
 4.08670007511973E+0001  2830
 4.08930007517338E+0001  2876
 4.09190007522702E+0001  2856
 4.09450007528067E+0001  2853
 4.09710007533431E+0001  2881
 4.09970007538795E+0001  2841
 4.10230007544160E+0001  2869
 4.10490007549524E+0001  2804
 4.10750007554889E+0001  2823
 4.11010007560253E+0001  2838
 4.11270007565618E+0001  2787
 4.11530007570982E+0001  2801
 4.11790007576346E+0001  2775
 4.12050007581711E+0001  2825
 4.12310007587075E+0001  2861
 4.12570007592440E+0001  2866
 4.12830007597804E+0001  2874
 4.13090007603168E+0001  2883
 4.13350007608533E+0001  2828
 4.13610007613897E+0001  2876
 4.13870007619262E+0001  2802
 4.14130007624626E+0001  2886
 4.14390007629991E+0001  2861
 4.14650007635355E+0001  2872
 4.14910007640719E+0001  2830
 4.15170007646084E+0001  2876
 4.15430007651448E+0001  2826
 4.15690007656813E+0001  2921
 4.15950007662177E+0001  2875
 4.16210007667542E+0001  2781
 4.16470007672906E+0001  2853
 4.16730007678270E+0001  2839
 4.16990007683635E+0001  2844
 4.17250007688999E+0001  2899
 4.17510007694364E+0001  2896
 4.17770007699728E+0001  2895
 4.18030007705092E+0001  2861
 4.18290007710457E+0001  2787
 4.18550007715821E+0001  2832
 4.18810007721186E+0001  2939
 4.19070007726550E+0001  2941
 4.19330007731915E+0001  2833
 4.19590007737279E+0001  2863
 4.19850007742643E+0001  2930
 4.20110007748008E+0001  2874
 4.20370007753372E+0001  2882
 4.20630007758737E+0001  2944
 4.20890007764101E+0001  2935
 4.21150007769465E+0001  2924
 4.21410007774830E+0001  2991
 4.21670007780194E+0001  2935
 4.21930007785559E+0001  2896
 4.22190007790923E+0001  2925
 4.22450007796288E+0001  2893
 4.22710007801652E+0001  2957
 4.22970007807016E+0001  2883
 4.23230007812381E+0001  2847
 4.23490007817745E+0001  2912
 4.23750007823110E+0001  2892
 4.24010007828474E+0001  2945
 4.24270007833838E+0001  2887
 4.24530007839203E+0001  2777
 4.24790007844567E+0001  2859
 4.25050007849932E+0001  2904
 4.25310007855296E+0001  2877
 4.25570007860661E+0001  2897
 4.25830007866025E+0001  2965
 4.26090007871389E+0001  2962
 4.26350007876754E+0001  2940
 4.26610007882118E+0001  3034
 4.26870007887483E+0001  3059
 4.27130007892847E+0001  3095
 4.27390007898211E+0001  3064
 4.27650007903576E+0001  3131
 4.27910007908940E+0001  3266
 4.28170007914305E+0001  3366
 4.28430007919669E+0001  3465
 4.28690007925034E+0001  3482
 4.28950007930398E+0001  3550
 4.29210007935762E+0001  3652
 4.29470007941127E+0001  3736
 4.29730007946491E+0001  3867
 4.29990007951856E+0001  3966
 4.30250007957220E+0001  3975
 4.30510007962584E+0001  4059
 4.30770007967949E+0001  4178
 4.31030007973313E+0001  4184
 4.31290007978678E+0001  4205
 4.31550007984042E+0001  4212
 4.31810007989407E+0001  4250
 4.32070007994771E+0001  4370
 4.32330008000135E+0001  4412
 4.32590008005500E+0001  4397
 4.32850008010864E+0001  4418
 4.33110008016229E+0001  4406
 4.33370008021593E+0001  4323
 4.33630008026958E+0001  4272
 4.33890008032322E+0001  4202
 4.34150008037686E+0001  4260
 4.34410008043051E+0001  4173
 4.34670008048415E+0001  4076
 4.34930008053780E+0001  4074
 4.35190008059144E+0001  4035
 4.35450008064508E+0001  3975
 4.35710008069873E+0001  3825
 4.35970008075237E+0001  3601
 4.36230008080602E+0001  3635
 4.36490008085966E+0001  3565
 4.36750008091331E+0001  3447
 4.37010008096695E+0001  3348
 4.37270008102059E+0001  3362
 4.37530008107424E+0001  3217
 4.37790008112788E+0001  3164
 4.38050008118153E+0001  3104
 4.38310008123517E+0001  3038
 4.38570008128881E+0001  2951
 4.38830008134246E+0001  2983
 4.39090008139610E+0001  2871
 4.39350008144975E+0001  2858
 4.39610008150339E+0001  2831
 4.39870008155704E+0001  2779
 4.40130008161068E+0001  2764
 4.40390008166432E+0001  2708
 4.40650008171797E+0001  2802
 4.40910008177161E+0001  2770
 4.41170008182526E+0001  2728
 4.41430008187890E+0001  2658
 4.41690008193254E+0001  2690
 4.41950008198619E+0001  2741
 4.42210008203983E+0001  2610
 4.42470008209348E+0001  2702
 4.42730008214712E+0001  2677
 4.42990008220077E+0001  2674
 4.43250008225441E+0001  2588
 4.43510008230805E+0001  2713
 4.43770008236170E+0001  2684
 4.44030008241534E+0001  2679
 4.44290008246899E+0001  2695
 4.44550008252263E+0001  2783
 4.44810008257627E+0001  2736
 4.45070008262992E+0001  2693
 4.45330008268356E+0001  2643
 4.45590008273721E+0001  2567
 4.45850008279085E+0001  2705
 4.46110008284450E+0001  2712
 4.46370008289814E+0001  2654
 4.46630008295178E+0001  2607
 4.46890008300543E+0001  2627
 4.47150008305907E+0001  2626
 4.47410008311272E+0001  2674
 4.47670008316636E+0001  2648
 4.47930008322001E+0001  2665
 4.48190008327365E+0001  2629
 4.48450008332729E+0001  2534
 4.48710008338094E+0001  2507
 4.48970008343458E+0001  2569
 4.49230008348823E+0001  2617
 4.49490008354187E+0001  2540
 4.49750008359551E+0001  2494
 4.50010008364916E+0001  2523
 4.50270008370280E+0001  2552
 4.50530008375645E+0001  2460
 4.50790008381009E+0001  2589
 4.51050008386374E+0001  2558
 4.51310008391738E+0001  2566
 4.51570008397102E+0001  2572
 4.51830008402467E+0001  2561
 4.52090008407831E+0001  2484
 4.52350008413196E+0001  2466
 4.52610008418560E+0001  2538
 4.52870008423924E+0001  2445
 4.53130008429289E+0001  2465
 4.53390008434653E+0001  2505
 4.53650008440018E+0001  2525
 4.53910008445382E+0001  2487
 4.54170008450747E+0001  2491
 4.54430008456111E+0001  2559
 4.54690008461475E+0001  2546
 4.54950008466840E+0001  2547
 4.55210008472204E+0001  2510
 4.55470008477569E+0001  2425
 4.55730008482933E+0001  2463
 4.55990008488297E+0001  2506
 4.56250008493662E+0001  2498
 4.56510008499026E+0001  2475
 4.56770008504391E+0001  2470
 4.57030008509755E+0001  2461
 4.57290008515120E+0001  2481
 4.57550008520484E+0001  2521
 4.57810008525848E+0001  2456
 4.58070008531213E+0001  2431
 4.58330008536577E+0001  2466
 4.58590008541942E+0001  2481
 4.58850008547306E+0001  2472
 4.59110008552670E+0001  2487
 4.59370008558035E+0001  2426
 4.59630008563399E+0001  2441
 4.59890008568764E+0001  2477
 4.60150008574128E+0001  2419
 4.60410008579493E+0001  2378
 4.60670008584857E+0001  2462
 4.60930008590221E+0001  2489
 4.61190008595586E+0001  2505
 4.61450008600950E+0001  2496
 4.61710008606315E+0001  2379
 4.61970008611679E+0001  2362
 4.62230008617043E+0001  2445
 4.62490008622408E+0001  2424
 4.62750008627772E+0001  2473
 4.63010008633137E+0001  2422
 4.63270008638501E+0001  2458
 4.63530008643866E+0001  2431
 4.63790008649230E+0001  2402
 4.64050008654594E+0001  2530
 4.64310008659959E+0001  2463
 4.64570008665323E+0001  2424
 4.64830008670688E+0001  2405
 4.65090008676052E+0001  2385
 4.65350008681417E+0001  2468
 4.65610008686781E+0001  2478
 4.65870008692145E+0001  2417
 4.66130008697510E+0001  2453
 4.66390008702874E+0001  2483
 4.66650008708239E+0001  2358
 4.66910008713603E+0001  2517
 4.67170008718967E+0001  2436
 4.67430008724332E+0001  2379
 4.67690008729696E+0001  2397
 4.67950008735061E+0001  2412
 4.68210008740425E+0001  2478
 4.68470008745790E+0001  2432
 4.68730008751154E+0001  2412
 4.68990008756518E+0001  2426
 4.69250008761883E+0001  2464
 4.69510008767247E+0001  2355
 4.69770008772612E+0001  2362
 4.70030008777976E+0001  2466
 4.70290008783340E+0001  2490
 4.70550008788705E+0001  2534
 4.70810008794069E+0001  2345
 4.71070008799434E+0001  2454
 4.71330008804798E+0001  2439
 4.71590008810163E+0001  2469
 4.71850008815527E+0001  2467
 4.72110008820891E+0001  2489
 4.72370008826256E+0001  2490
 4.72630008831620E+0001  2446
 4.72890008836985E+0001  2540
 4.73150008842349E+0001  2426
 4.73410008847713E+0001  2476
 4.73670008853078E+0001  2485
 4.73930008858442E+0001  2517
 4.74190008863807E+0001  2476
 4.74450008869171E+0001  2458
 4.74710008874536E+0001  2439
 4.74970008879900E+0001  2447
 4.75230008885264E+0001  2398
 4.75490008890629E+0001  2421
 4.75750008895993E+0001  2416
 4.76010008901358E+0001  2412
 4.76270008906722E+0001  2442
 4.76530008912086E+0001  2477
 4.76790008917451E+0001  2451
 4.77050008922815E+0001  2478
 4.77310008928180E+0001  2420
 4.77570008933544E+0001  2417
 4.77830008938909E+0001  2452
 4.78090008944273E+0001  2481
 4.78350008949637E+0001  2431
 4.78610008955002E+0001  2428
 4.78870008960366E+0001  2429
 4.79130008965731E+0001  2415
 4.79390008971095E+0001  2436
 4.79650008976460E+0001  2493
 4.79910008981824E+0001  2521
 4.80170008987188E+0001  2456
 4.80430008992553E+0001  2459
 4.80690008997917E+0001  2440
 4.80950009003282E+0001  2448
 4.81210009008646E+0001  2494
 4.81470009014010E+0001  2461
 4.81730009019375E+0001  2435
 4.81990009024739E+0001  2431
 4.82250009030104E+0001  2465
 4.82510009035468E+0001  2508
 4.82770009040833E+0001  2482
 4.83030009046197E+0001  2476
 4.83290009051561E+0001  2514
 4.83550009056926E+0001  2495
 4.83810009062290E+0001  2456
 4.84070009067655E+0001  2486
 4.84330009073019E+0001  2518
 4.84590009078383E+0001  2505
 4.84850009083748E+0001  2508
 4.85110009089112E+0001  2556
 4.85370009094477E+0001  2549
 4.85630009099841E+0001  2467
 4.85890009105206E+0001  2445
 4.86150009110570E+0001  2457
 4.86410009115934E+0001  2464
 4.86670009121299E+0001  2525
 4.86930009126663E+0001  2472
 4.87190009132028E+0001  2460
 4.87450009137392E+0001  2453
 4.87710009142756E+0001  2485
 4.87970009148121E+0001  2480
 4.88230009153485E+0001  2474
 4.88490009158850E+0001  2509
 4.88750009164214E+0001  2452
 4.89010009169579E+0001  2461
 4.89270009174943E+0001  2411
 4.89530009180307E+0001  2456
 4.89790009185672E+0001  2448
 4.90050009191036E+0001  2436
 4.90310009196401E+0001  2435
 4.90570009201765E+0001  2524
 4.90830009207129E+0001  2464
 4.91090009212494E+0001  2522
 4.91350009217858E+0001  2506
 4.91610009223223E+0001  2508
 4.91870009228587E+0001  2467
 4.92130009233952E+0001  2501
 4.92390009239316E+0001  2512
 4.92650009244680E+0001  2518
 4.92910009250045E+0001  2482
 4.93170009255409E+0001  2566
 4.93430009260774E+0001  2647
 4.93690009266138E+0001  2486
 4.93950009271502E+0001  2476
 4.94210009276867E+0001  2438
 4.94470009282231E+0001  2538
 4.94730009287596E+0001  2419
 4.94990009292960E+0001  2590
 4.95250009298325E+0001  2487
 4.95510009303689E+0001  2484
 4.95770009309053E+0001  2386
 4.96030009314418E+0001  2512
 4.96290009319782E+0001  2544
 4.96550009325147E+0001  2433
 4.96810009330511E+0001  2491
 4.97070009335876E+0001  2473
 4.97330009341240E+0001  2479
 4.97590009346604E+0001  2560
 4.97850009351969E+0001  2536
 4.98110009357333E+0001  2532
 4.98370009362698E+0001  2588
 4.98630009368062E+0001  2635
 4.98890009373426E+0001  2491
 4.99150009378791E+0001  2631
 4.99410009384155E+0001  2535
 4.99670009389520E+0001  2460
 4.99930009394884E+0001  2613
 5.00190009400249E+0001  2653
 5.00450009405613E+0001  2552
 5.00710009410977E+0001  2568
 5.00970009416342E+0001  2504
 5.01230009421706E+0001  2520
 5.01490009427071E+0001  2566
 5.01750009432435E+0001  2553
 5.02010009437799E+0001  2523
 5.02270009443164E+0001  2518
 5.02530009448528E+0001  2533
 5.02790009453893E+0001  2524
 5.03050009459257E+0001  2571
 5.03310009464622E+0001  2531
 5.03570009469986E+0001  2588
 5.03830009475350E+0001  2629
 5.04090009480715E+0001  2636
 5.04350009486079E+0001  2599
 5.04610009491444E+0001  2568
 5.04870009496808E+0001  2523
 5.05130009502172E+0001  2544
 5.05390009507537E+0001  2558
 5.05650009512901E+0001  2566
 5.05910009518266E+0001  2666
 5.06170009523630E+0001  2701
 5.06430009528995E+0001  2635
 5.06690009534359E+0001  2539
 5.06950009539723E+0001  2543
 5.07210009545088E+0001  2619
 5.07470009550452E+0001  2555
 5.07730009555817E+0001  2529
 5.07990009561181E+0001  2562
 5.08250009566545E+0001  2585
 5.08510009571910E+0001  2636
 5.08770009577274E+0001  2651
 5.09030009582639E+0001  2654
 5.09290009588003E+0001  2669
 5.09550009593368E+0001  2657
 5.09810009598732E+0001  2655
 5.10070009604096E+0001  2682
 5.10330009609461E+0001  2648
 5.10590009614825E+0001  2584
 5.10850009620190E+0001  2555
 5.11110009625554E+0001  2581
 5.11370009630919E+0001  2669
 5.11630009636283E+0001  2663
 5.11890009641647E+0001  2618
 5.12150009647012E+0001  2639
 5.12410009652376E+0001  2589
 5.12670009657741E+0001  2606
 5.12930009663105E+0001  2629
 5.13190009668469E+0001  2618
 5.13450009673834E+0001  2619
 5.13710009679198E+0001  2703
 5.13970009684563E+0001  2691
 5.14230009689927E+0001  2649
 5.14490009695292E+0001  2597
 5.14750009700656E+0001  2598
 5.15010009706020E+0001  2633
 5.15270009711385E+0001  2619
 5.15530009716749E+0001  2629
 5.15790009722114E+0001  2625
 5.16050009727478E+0001  2648
 5.16310009732842E+0001  2720
 5.16570009738207E+0001  2748
 5.16830009743571E+0001  2714
 5.17090009748936E+0001  2704
 5.17350009754300E+0001  2757
 5.17610009759665E+0001  2661
 5.17870009765029E+0001  2627
 5.18130009770393E+0001  2736
 5.18390009775758E+0001  2690
 5.18650009781122E+0001  2671
 5.18910009786487E+0001  2694
 5.19170009791851E+0001  2700
 5.19430009797215E+0001  2686
 5.19690009802580E+0001  2667
 5.19950009807944E+0001  2698
 5.20210009813309E+0001  2768
 5.20470009818673E+0001  2715
 5.20730009824038E+0001  2759
 5.20990009829402E+0001  2723
 5.21250009834766E+0001  2733
 5.21510009840131E+0001  2791
 5.21770009845495E+0001  2710
 5.22030009850860E+0001  2639
 5.22290009856224E+0001  2705
 5.22550009861588E+0001  2743
 5.22810009866953E+0001  2623
 5.23070009872317E+0001  2729
 5.23330009877682E+0001  2731
 5.23590009883046E+0001  2724
 5.23850009888411E+0001  2742
 5.24110009893775E+0001  2762
 5.24370009899139E+0001  2712
 5.24630009904504E+0001  2775
 5.24890009909868E+0001  2694
 5.25150009915233E+0001  2720
 5.25410009920597E+0001  2743
 5.25670009925961E+0001  2801
 5.25930009931326E+0001  2884
 5.26190009936690E+0001  2816
 5.26450009942055E+0001  2710
 5.26710009947419E+0001  2734
 5.26970009952784E+0001  2793
 5.27230009958148E+0001  2719
 5.27490009963512E+0001  2766
 5.27750009968877E+0001  2787
 5.28010009974241E+0001  2783
 5.28270009979606E+0001  2747
 5.28530009984970E+0001  2757
 5.28790009990335E+0001  2734
 5.29050009995699E+0001  2701
 5.29310010001063E+0001  2771
 5.29570010006428E+0001  2798
 5.29830010011792E+0001  2781
 5.30090010017157E+0001  2779
 5.30350010022521E+0001  2814
 5.30610010027885E+0001  2816
 5.30870010033250E+0001  2827
 5.31130010038614E+0001  2812
 5.31390010043979E+0001  2816
 5.31650010049343E+0001  2821
 5.31910010054708E+0001  2851
 5.32170010060072E+0001  2812
 5.32430010065436E+0001  2790
 5.32690010070801E+0001  2813
 5.32950010076165E+0001  2814
 5.33210010081530E+0001  2800
 5.33470010086894E+0001  2834
 5.33730010092258E+0001  2859
 5.33990010097623E+0001  2838
 5.34250010102987E+0001  2837
 5.34510010108352E+0001  2810
 5.34770010113716E+0001  2774
 5.35030010119081E+0001  2804
 5.35290010124445E+0001  2838
 5.35550010129809E+0001  2866
 5.35810010135174E+0001  2904
 5.36070010140538E+0001  2847
 5.36330010145903E+0001  2776
 5.36590010151267E+0001  2803
 5.36850010156631E+0001  2802
 5.37110010161996E+0001  2801
 5.37370010167360E+0001  2793
 5.37630010172725E+0001  2763
 5.37890010178089E+0001  2796
 5.38150010183454E+0001  2794
 5.38410010188818E+0001  2798
 5.38670010194182E+0001  2825
 5.38930010199547E+0001  2851
 5.39190010204911E+0001  2839
 5.39450010210276E+0001  2822
 5.39710010215640E+0001  2805
 5.39970010221004E+0001  2787
 5.40230010226369E+0001  2774
 5.40490010231733E+0001  2808
 5.40750010237098E+0001  2751
 5.41010010242462E+0001  2772
 5.41270010247827E+0001  2812
 5.41530010253191E+0001  2845
 5.41790010258555E+0001  2846
 5.42050010263920E+0001  2732
 5.42310010269284E+0001  2696
 5.42570010274649E+0001  2738
 5.42830010280013E+0001  2760
 5.43090010285378E+0001  2737
 5.43350010290742E+0001  2706
 5.43610010296106E+0001  2772
 5.43870010301471E+0001  2775
 5.44130010306835E+0001  2703
 5.44390010312200E+0001  2767
 5.44650010317564E+0001  2704
 5.44910010322928E+0001  2758
 5.45170010328293E+0001  2706
 5.45430010333657E+0001  2741
 5.45690010339022E+0001  2699
 5.45950010344386E+0001  2691
 5.46210010349751E+0001  2728
 5.46470010355115E+0001  2678
 5.46730010360479E+0001  2690
 5.46990010365844E+0001  2800
 5.47250010371208E+0001  2735
 5.47510010376573E+0001  2801
 5.47770010381937E+0001  2730
 5.48030010387301E+0001  2665
 5.48290010392666E+0001  2672
 5.48550010398030E+0001  2745
 5.48810010403395E+0001  2652
 5.49070010408759E+0001  2739
 5.49330010414124E+0001  2665
 5.49590010419488E+0001  2666
 5.49850010424852E+0001  2752
 5.50110010430217E+0001  2601
 5.50370010435581E+0001  2801
 5.50630010440946E+0001  2699
 5.50890010446310E+0001  2831
 5.51150010451674E+0001  2771
 5.51410010457039E+0001  2777
 5.51670010462403E+0001  2709
 5.51930010467768E+0001  2683
 5.52190010473132E+0001  2716
 5.52450010478497E+0001  2724
 5.52710010483861E+0001  2776
 5.52970010489225E+0001  2712
 5.53230010494590E+0001  2722
 5.53490010499954E+0001  2693
 5.53750010505319E+0001  2768
 5.54010010510683E+0001  2813
 5.54270010516047E+0001  2757
 5.54530010521412E+0001  2808
 5.54790010526776E+0001  2771
 5.55050010532141E+0001  2662
 5.55310010537505E+0001  2711
 5.55570010542870E+0001  2795
 5.55830010548234E+0001  2754
 5.56090010553598E+0001  2748
 5.56350010558963E+0001  2775
 5.56610010564327E+0001  2790
 5.56870010569692E+0001  2841
 5.57130010575056E+0001  2860
 5.57390010580420E+0001  2849
 5.57650010585785E+0001  2834
 5.57910010591149E+0001  2854
 5.58170010596514E+0001  2825
 5.58430010601878E+0001  2739
 5.58690010607243E+0001  2776
 5.58950010612607E+0001  2843
 5.59210010617971E+0001  2820
 5.59470010623336E+0001  2891
 5.59730010628700E+0001  2888
 5.59990010634065E+0001  2925
 5.60250010639429E+0001  2890
 5.60510010644794E+0001  2795
 5.60770010650158E+0001  2913
 5.61030010655522E+0001  3019
 5.61290010660887E+0001  2965
 5.61550010666251E+0001  2900
 5.61810010671616E+0001  2942
 5.62070010676980E+0001  3037
 5.62330010682344E+0001  3016
 5.62590010687709E+0001  2947
 5.62850010693073E+0001  2991
 5.63110010698438E+0001  3035
 5.63370010703802E+0001  3008
 5.63630010709167E+0001  2995
 5.63890010714531E+0001  3040
 5.64150010719895E+0001  3065
 5.64410010725260E+0001  3088
 5.64670010730624E+0001  3076
 5.64930010735989E+0001  3154
 5.65190010741353E+0001  3108
 5.65450010746717E+0001  3079
 5.65710010752082E+0001  3100
 5.65970010757446E+0001  3187
 5.66230010762811E+0001  3151
 5.66490010768175E+0001  3184
 5.66750010773540E+0001  3215
 5.67010010778904E+0001  3198
 5.67270010784268E+0001  3121
 5.67530010789633E+0001  3126
 5.67790010794997E+0001  3160
 5.68050010800362E+0001  3189
 5.68310010805726E+0001  3244
 5.68570010811090E+0001  3239
 5.68830010816455E+0001  3234
 5.69090010821819E+0001  3297
 5.69350010827184E+0001  3273
 5.69610010832548E+0001  3355
 5.69870010837913E+0001  3308
 5.70130010843277E+0001  3249
 5.70390010848641E+0001  3247
 5.70650010854006E+0001  3277
 5.70910010859370E+0001  3244
 5.71170010864735E+0001  3245
 5.71430010870099E+0001  3296
 5.71690010875463E+0001  3362
 5.71950010880828E+0001  3294
 5.72210010886192E+0001  3313
 5.72470010891557E+0001  3415
 5.72730010896921E+0001  3357
 5.72990010902286E+0001  3334
 5.73250010907650E+0001  3334
 5.73510010913014E+0001  3347
 5.73770010918379E+0001  3343
 5.74030010923743E+0001  3379
 5.74290010929108E+0001  3391
 5.74550010934472E+0001  3330
 5.74810010939837E+0001  3263
 5.75070010945201E+0001  3289
 5.75330010950565E+0001  3341
 5.75590010955930E+0001  3241
 5.75850010961294E+0001  3279
 5.76110010966659E+0001  3225
 5.76370010972023E+0001  3277
 5.76630010977387E+0001  3223
 5.76890010982752E+0001  3309
 5.77150010988116E+0001  3173
 5.77410010993481E+0001  3174
 5.77670010998845E+0001  3142
 5.77930011004210E+0001  3196
 5.78190011009574E+0001  3075
 5.78450011014938E+0001  3174
 5.78710011020303E+0001  3181
 5.78970011025667E+0001  3121
 5.79230011031032E+0001  3197
 5.79490011036396E+0001  3059
 5.79750011041760E+0001  3144
 5.80010011047125E+0001  3179
 5.80270011052489E+0001  3090
 5.80530011057854E+0001  3053
 5.80790011063218E+0001  3041
 5.81050011068583E+0001  3065
 5.81310011073947E+0001  3084
 5.81570011079311E+0001  3029
 5.81830011084676E+0001  3031
 5.82090011090040E+0001  3033
 5.82350011095405E+0001  3087
 5.82610011100769E+0001  2999
 5.82870011106133E+0001  2985
 5.83130011111498E+0001  3001
 5.83390011116862E+0001  2973
 5.83650011122227E+0001  2996
 5.83910011127591E+0001  3019
 5.84170011132956E+0001  3024
 5.84430011138320E+0001  2968
 5.84690011143684E+0001  2944
 5.84950011149049E+0001  2954
 5.85210011154413E+0001  2938
 5.85470011159778E+0001  2896
 5.85730011165142E+0001  2899
 5.85990011170506E+0001  2904
 5.86250011175871E+0001  2807
 5.86510011181235E+0001  2817
 5.86770011186600E+0001  2846
 5.87030011191964E+0001  2850
 5.87290011197329E+0001  2847
 5.87550011202693E+0001  2870
 5.87810011208057E+0001  2930
 5.88070011213422E+0001  2843
 5.88330011218786E+0001  2783
 5.88590011224151E+0001  2791
 5.88850011229515E+0001  2793
 5.89110011234879E+0001  2837
 5.89370011240244E+0001  2871
 5.89630011245608E+0001  2904
 5.89890011250973E+0001  2850
 5.90150011256337E+0001  2796
 5.90410011261702E+0001  2844
 5.90670011267066E+0001  2789
 5.90930011272430E+0001  2767
 5.91190011277795E+0001  2765
 5.91450011283159E+0001  2720
 5.91710011288524E+0001  2709
 5.91970011293888E+0001  2791
 5.92230011299253E+0001  2839
 5.92490011304617E+0001  2813
 5.92750011309981E+0001  2843
 5.93010011315346E+0001  2793
 5.93270011320710E+0001  2814
 5.93530011326075E+0001  2857
 5.93790011331439E+0001  2774
 5.94050011336803E+0001  2761
 5.94310011342168E+0001  2793
 5.94570011347532E+0001  2701
 5.94830011352897E+0001  2753
 5.95090011358261E+0001  2849
 5.95350011363626E+0001  2715
 5.95610011368990E+0001  2711
 5.95870011374354E+0001  2782
 5.96130011379719E+0001  2793
 5.96390011385083E+0001  2714
 5.96650011390448E+0001  2797
 5.96910011395812E+0001  2765
 5.97170011401176E+0001  2758
 5.97430011406541E+0001  2820
 5.97690011411905E+0001  2812
 5.97950011417270E+0001  2776
 5.98210011422634E+0001  2824
 5.98470011427999E+0001  2845
 5.98730011433363E+0001  2717
 5.98990011438727E+0001  2871
 5.99250011444092E+0001  2778
 5.99510011449456E+0001  2822
 5.99770011454821E+0001  2724
 6.00030011460185E+0001  2863
 6.00290011465549E+0001  2788
 6.00550011470914E+0001  2719
 6.00810011476278E+0001  2751
 6.01070011481643E+0001  2733
 6.01330011487007E+0001  2839
 6.01590011492372E+0001  2803
 6.01850011497736E+0001  2815
 6.02110011503100E+0001  2743
 6.02370011508465E+0001  2832
 6.02630011513829E+0001  2715
 6.02890011519194E+0001  2762
 6.03150011524558E+0001  2808
 6.03410011529922E+0001  2783
 6.03670011535287E+0001  2700
 6.03930011540651E+0001  2724
 6.04190011546016E+0001  2787
 6.04450011551380E+0001  2707
 6.04710011556745E+0001  2833
 6.04970011562109E+0001  2697
 6.05230011567473E+0001  2743
 6.05490011572838E+0001  2786
 6.05750011578202E+0001  2771
 6.06010011583567E+0001  2651
 6.06270011588931E+0001  2690
 6.06530011594296E+0001  2666
 6.06790011599660E+0001  2736
 6.07050011605024E+0001  2785
 6.07310011610389E+0001  2724
 6.07570011615753E+0001  2700
 6.07830011621118E+0001  2762
 6.08090011626482E+0001  2706
 6.08350011631846E+0001  2689
 6.08610011637211E+0001  2681
 6.08870011642575E+0001  2681
 6.09130011647940E+0001  2723
 6.09390011653304E+0001  2733
 6.09650011658669E+0001  2699
 6.09910011664033E+0001  2710
 6.10170011669397E+0001  2720
 6.10430011674762E+0001  2746
 6.10690011680126E+0001  2749
 6.10950011685491E+0001  2724
 6.11210011690855E+0001  2714
 6.11470011696219E+0001  2706
 6.11730011701584E+0001  2744
 6.11990011706948E+0001  2757
 6.12250011712313E+0001  2733
 6.12510011717677E+0001  2725
 6.12770011723042E+0001  2725
 6.13030011728406E+0001  2737
 6.13290011733770E+0001  2779
 6.13550011739135E+0001  2797
 6.13810011744499E+0001  2772
 6.14070011749864E+0001  2767
 6.14330011755228E+0001  2761
 6.14590011760592E+0001  2783
 6.14850011765957E+0001  2792
 6.15110011771321E+0001  2790
 6.15370011776686E+0001  2823
 6.15630011782050E+0001  2758
 6.15890011787415E+0001  2736
 6.16150011792779E+0001  2760
 6.16410011798143E+0001  2740
 6.16670011803508E+0001  2782
 6.16930011808872E+0001  2838
 6.17190011814237E+0001  2819
 6.17450011819601E+0001  2797
 6.17710011824965E+0001  2820
 6.17970011830330E+0001  2907
 6.18230011835694E+0001  2774
 6.18490011841059E+0001  2746
 6.18750011846423E+0001  2852
 6.19010011851788E+0001  2878
 6.19270011857152E+0001  2893
 6.19530011862516E+0001  2898
 6.19790011867881E+0001  2811
 6.20050011873245E+0001  2856
 6.20310011878610E+0001  2909
 6.20570011883974E+0001  2918
 6.20830011889338E+0001  2953
 6.21090011894703E+0001  3027
 6.21350011900067E+0001  2978
 6.21610011905432E+0001  3064
 6.21870011910796E+0001  3169
 6.22130011916161E+0001  3197
 6.22390011921525E+0001  3130
 6.22650011926889E+0001  3250
 6.22910011932254E+0001  3216
 6.23170011937618E+0001  3443
 6.23430011942983E+0001  3400
 6.23690011948347E+0001  3448
 6.23950011953712E+0001  3535
 6.24210011959076E+0001  3709
 6.24470011964440E+0001  3738
 6.24730011969805E+0001  3861
 6.24990011975169E+0001  4079
 6.25250011980534E+0001  4170
 6.25510011985898E+0001  4225
 6.25770011991262E+0001  4347
 6.26030011996627E+0001  4384
 6.26290012001991E+0001  4465
 6.26550012007356E+0001  4686
 6.26810012012720E+0001  4629
 6.27070012018085E+0001  4728
 6.27330012023449E+0001  4802
 6.27590012028813E+0001  4898
 6.27850012034178E+0001  4828
 6.28110012039542E+0001  5044
 6.28370012044907E+0001  5117
 6.28630012050271E+0001  5092
 6.28890012055635E+0001  4972
 6.29150012061000E+0001  4944
 6.29410012066364E+0001  5012
 6.29670012071729E+0001  4969
 6.29930012077093E+0001  4820
 6.30190012082458E+0001  4783
 6.30450012087822E+0001  4651
 6.30710012093186E+0001  4574
 6.30970012098551E+0001  4406
 6.31230012103915E+0001  4346
 6.31490012109280E+0001  4322
 6.31750012114644E+0001  4214
 6.32010012120008E+0001  4048
 6.32270012125373E+0001  3919
 6.32530012130737E+0001  3865
 6.32790012136102E+0001  3630
 6.33050012141466E+0001  3596
 6.33310012146831E+0001  3470
 6.33570012152195E+0001  3462
 6.33830012157559E+0001  3375
 6.34090012162924E+0001  3256
 6.34350012168288E+0001  3173
 6.34610012173653E+0001  3186
 6.34870012179017E+0001  3049
 6.35130012184381E+0001  3007
 6.35390012189746E+0001  2985
 6.35650012195110E+0001  2900
 6.35910012200475E+0001  2888
 6.36170012205839E+0001  2918
 6.36430012211204E+0001  2895
 6.36690012216568E+0001  2800
 6.36950012221932E+0001  2784
 6.37210012227297E+0001  2813
 6.37470012232661E+0001  2816
 6.37730012238026E+0001  2775
 6.37990012243390E+0001  2767
 6.38250012248755E+0001  2756
 6.38510012254119E+0001  2688
 6.38770012259483E+0001  2723
 6.39030012264848E+0001  2760
 6.39290012270212E+0001  2717
 6.39550012275577E+0001  2704
 6.39810012280941E+0001  2694
 6.40070012286305E+0001  2663
 6.40330012291670E+0001  2702
 6.40590012297034E+0001  2687
 6.40850012302399E+0001  2625
 6.41110012307763E+0001  2667
 6.41370012313128E+0001  2665
 6.41630012318492E+0001  2611
 6.41890012323856E+0001  2561
 6.42150012329221E+0001  2577
 6.42410012334585E+0001  2628
 6.42670012339950E+0001  2624
 6.42930012345314E+0001  2625
 6.43190012350678E+0001  2665
 6.43450012356043E+0001  2591
 6.43710012361407E+0001  2591
 6.43970012366772E+0001  2599
 6.44230012372136E+0001  2555
 6.44490012377501E+0001  2588
 6.44750012382865E+0001  2522
 6.45010012388229E+0001  2515
 6.45270012393594E+0001  2590
 6.45530012398958E+0001  2647
 6.45790012404323E+0001  2586
 6.46050012409687E+0001  2613
 6.46310012415051E+0001  2545
 6.46570012420416E+0001  2573
 6.46830012425780E+0001  2594
 6.47090012431145E+0001  2592
 6.47350012436509E+0001  2471
 6.47610012441874E+0001  2490
 6.47870012447238E+0001  2567
 6.48130012452602E+0001  2528
 6.48390012457967E+0001  2603
 6.48650012463331E+0001  2572
 6.48910012468696E+0001  2467
 6.49170012474060E+0001  2465
 6.49430012479424E+0001  2486
 6.49690012484789E+0001  2520
 6.49950012490153E+0001  2501
 6.50210012495518E+0001  2521
 6.50470012500882E+0001  2639
 6.50730012506247E+0001  2585
 6.50990012511611E+0001  2522
 6.51250012516975E+0001  2499
 6.51510012522340E+0001  2432
 6.51770012527704E+0001  2535
 6.52030012533069E+0001  2469
 6.52290012538433E+0001  2534
 6.52550012543797E+0001  2450
 6.52810012549162E+0001  2614
 6.53070012554526E+0001  2471
 6.53330012559891E+0001  2535
 6.53590012565255E+0001  2503
 6.53850012570620E+0001  2553
 6.54110012575984E+0001  2492
 6.54370012581348E+0001  2597
 6.54630012586713E+0001  2544
 6.54890012592077E+0001  2459
 6.55150012597442E+0001  2467
 6.55410012602806E+0001  2568
 6.55670012608171E+0001  2519
 6.55930012613535E+0001  2483
 6.56190012618899E+0001  2493
 6.56450012624264E+0001  2579
 6.56710012629628E+0001  2529
 6.56970012634993E+0001  2429
 6.57230012640357E+0001  2448
 6.57490012645721E+0001  2449
 6.57750012651086E+0001  2473
 6.58010012656450E+0001  2465
 6.58270012661815E+0001  2512
 6.58530012667179E+0001  2562
 6.58790012672544E+0001  2521
 6.59050012677908E+0001  2453
 6.59310012683272E+0001  2495
 6.59570012688637E+0001  2577
 6.59830012694001E+0001  2522
 6.60090012699366E+0001  2511
 6.60350012704730E+0001  2504
 6.60610012710094E+0001  2484
 6.60870012715459E+0001  2531
 6.61130012720823E+0001  2584
 6.61390012726188E+0001  2560
 6.61650012731552E+0001  2527
 6.61910012736917E+0001  2542
 6.62170012742281E+0001  2478
 6.62430012747645E+0001  2433
 6.62690012753010E+0001  2489
 6.62950012758374E+0001  2496
 6.63210012763739E+0001  2553
 6.63470012769103E+0001  2572
 6.63730012774467E+0001  2560
 6.63990012779832E+0001  2520
 6.64250012785196E+0001  2451
 6.64510012790561E+0001  2490
 6.64770012795925E+0001  2517
 6.65030012801290E+0001  2527
 6.65290012806654E+0001  2530
 6.65550012812018E+0001  2489
 6.65810012817383E+0001  2516
 6.66070012822747E+0001  2564
 6.66330012828112E+0001  2578
 6.66590012833476E+0001  2530
 6.66850012838840E+0001  2480
 6.67110012844205E+0001  2490
 6.67370012849569E+0001  2521
 6.67630012854934E+0001  2555
 6.67890012860298E+0001  2524
 6.68150012865663E+0001  2500
 6.68410012871027E+0001  2505
 6.68670012876391E+0001  2528
 6.68930012881756E+0001  2554
 6.69190012887120E+0001  2559
 6.69450012892485E+0001  2534
 6.69710012897849E+0001  2508
 6.69970012903214E+0001  2489
 6.70230012908578E+0001  2471
 6.70490012913942E+0001  2494
 6.70750012919307E+0001  2466
 6.71010012924671E+0001  2521
 6.71270012930036E+0001  2431
 6.71530012935400E+0001  2508
 6.71790012940764E+0001  2533
 6.72050012946129E+0001  2535
 6.72310012951493E+0001  2572
 6.72570012956858E+0001  2604
 6.72830012962222E+0001  2517
 6.73090012967587E+0001  2485
 6.73350012972951E+0001  2540
 6.73610012978315E+0001  2470
 6.73870012983680E+0001  2434
 6.74130012989044E+0001  2522
 6.74390012994409E+0001  2554
 6.74650012999773E+0001  2580
 6.74910013005137E+0001  2448
 6.75170013010502E+0001  2465
 6.75430013015866E+0001  2435
 6.75690013021231E+0001  2559
 6.75950013026595E+0001  2564
 6.76210013031960E+0001  2532
 6.76470013037324E+0001  2555
 6.76730013042688E+0001  2579
 6.76990013048053E+0001  2534
 6.77250013053417E+0001  2535
 6.77510013058782E+0001  2501
 6.77770013064146E+0001  2569
 6.78030013069510E+0001  2455
 6.78290013074875E+0001  2557
 6.78550013080239E+0001  2533
 6.78810013085604E+0001  2506
 6.79070013090968E+0001  2515
 6.79330013096333E+0001  2467
 6.79590013101697E+0001  2548
 6.79850013107061E+0001  2561
 6.80110013112426E+0001  2446
 6.80370013117790E+0001  2474
 6.80630013123155E+0001  2419
 6.80890013128519E+0001  2520
 6.81150013133883E+0001  2407
 6.81410013139248E+0001  2508
 6.81670013144612E+0001  2492
 6.81930013149977E+0001  2507
 6.82190013155341E+0001  2491
 6.82450013160706E+0001  2366
 6.82710013166070E+0001  2459
 6.82970013171434E+0001  2435
 6.83230013176799E+0001  2482
 6.83490013182163E+0001  2443
 6.83750013187528E+0001  2452
 6.84010013192892E+0001  2471
 6.84270013198256E+0001  2484
 6.84530013203621E+0001  2427
 6.84790013208985E+0001  2450
 6.85050013214350E+0001  2414
 6.85310013219714E+0001  2467
 6.85570013225079E+0001  2512
 6.85830013230443E+0001  2539
 6.86090013235807E+0001  2453
 6.86350013241172E+0001  2456
 6.86610013246536E+0001  2541
 6.86870013251901E+0001  2575
 6.87130013257265E+0001  2539
 6.87390013262630E+0001  2527
 6.87650013267994E+0001  2472
 6.87910013273358E+0001  2474
 6.88170013278723E+0001  2460
 6.88430013284087E+0001  2403
 6.88690013289452E+0001  2388
 6.88950013294816E+0001  2457
 6.89210013300180E+0001  2396
 6.89470013305545E+0001  2379
 6.89730013310909E+0001  2411
 6.89990013316274E+0001  2411
 6.90250013321638E+0001  2430
 6.90510013327003E+0001  2429
 6.90770013332367E+0001  2437
 6.91030013337731E+0001  2475
 6.91290013343096E+0001  2456
 6.91550013348460E+0001  2393
 6.91810013353825E+0001  2414
 6.92070013359189E+0001  2449
 6.92330013364553E+0001  2434
 6.92590013369918E+0001  2430
 6.92850013375282E+0001  2424
 6.93110013380647E+0001  2413
 6.93370013386011E+0001  2411
 6.93630013391376E+0001  2369
 6.93890013396740E+0001  2299
 6.94150013402104E+0001  2307
 6.94410013407469E+0001  2404
 6.94670013412833E+0001  2441
 6.94930013418198E+0001  2391
 6.95190013423562E+0001  2459
 6.95450013428926E+0001  2452
 6.95710013434291E+0001  2397
 6.95970013439655E+0001  2399
 6.96230013445020E+0001  2392
 6.96490013450384E+0001  2362
 6.96750013455749E+0001  2370
 6.97010013461113E+0001  2366
 6.97270013466477E+0001  2348
 6.97530013471842E+0001  2363
 6.97790013477206E+0001  2392
 6.98050013482571E+0001  2360
 6.98310013487935E+0001  2247
 6.98570013493299E+0001  2327
 6.98830013498664E+0001  2369
 6.99090013504028E+0001  2365
 6.99350013509393E+0001  2398
 6.99610013514757E+0001  2348
 6.99870013520122E+0001  2403
 7.00130013525486E+0001  2401
 7.00390013530850E+0001  2372
 7.00650013536215E+0001  2346
 7.00910013541579E+0001  2410
 7.01170013546944E+0001  2336
 7.01430013552308E+0001  2343
 7.01690013557673E+0001  2360
 7.01950013563037E+0001  2344
 7.02210013568401E+0001  2276
 7.02470013573766E+0001  2336
 7.02730013579130E+0001  2353
 7.02990013584495E+0001  2342
 7.03250013589859E+0001  2387
 7.03510013595223E+0001  2387
 7.03770013600588E+0001  2338
 7.04030013605952E+0001  2320
 7.04290013611317E+0001  2315
 7.04550013616681E+0001  2467
 7.04810013622046E+0001  2333
 7.05070013627410E+0001  2280
 7.05330013632774E+0001  2374
 7.05590013638139E+0001  2303
 7.05850013643503E+0001  2336
 7.06110013648868E+0001  2310
 7.06370013654232E+0001  2398
 7.06630013659596E+0001  2298
 7.06890013664961E+0001  2298
 7.07150013670325E+0001  2339
 7.07410013675690E+0001  2361
 7.07670013681054E+0001  2372
 7.07930013686419E+0001  2307
 7.08190013691783E+0001  2323
 7.08450013697147E+0001  2238
 7.08710013702512E+0001  2296
 7.08970013707876E+0001  2358
 7.09230013713241E+0001  2377
 7.09490013718605E+0001  2356
 7.09750013723969E+0001  2335
 7.10010013729334E+0001  2302
 7.10270013734698E+0001  2397
 7.10530013740063E+0001  2384
 7.10790013745427E+0001  2344
 7.11050013750792E+0001  2320
 7.11310013756156E+0001  2320
 7.11570013761520E+0001  2310
 7.11830013766885E+0001  2329
 7.12090013772249E+0001  2395
 7.12350013777614E+0001  2337
 7.12610013782978E+0001  2303
 7.12870013788342E+0001  2328
 7.13130013793707E+0001  2322
 7.13390013799071E+0001  2307
 7.13650013804436E+0001  2304
 7.13910013809800E+0001  2315
 7.14170013815165E+0001  2313
 7.14430013820529E+0001  2321
 7.14690013825893E+0001  2385
 7.14950013831258E+0001  2341
 7.15210013836622E+0001  2299
 7.15470013841987E+0001  2374
 7.15730013847351E+0001  2408
 7.15990013852715E+0001  2383
 7.16250013858080E+0001  2298
 7.16510013863444E+0001  2280
 7.16770013868809E+0001  2296
 7.17030013874173E+0001  2307
 7.17290013879538E+0001  2305
 7.17550013884902E+0001  2324
 7.17810013890266E+0001  2337
 7.18070013895631E+0001  2293
 7.18330013900995E+0001  2286
 7.18590013906360E+0001  2343
 7.18850013911724E+0001  2378
 7.19110013917089E+0001  2354
 7.19370013922453E+0001  2344
 7.19630013927817E+0001  2356
 7.19890013933182E+0001  2354
 7.20150013938546E+0001  2325
 7.20410013943911E+0001  2308
 7.20670013949275E+0001  2351
 7.20930013954639E+0001  2322
 7.21190013960004E+0001  2275
 7.21450013965368E+0001  2334
 7.21710013970733E+0001  2370
 7.21970013976097E+0001  2350
 7.22230013981462E+0001  2302
 7.22490013986826E+0001  2264
 7.22750013992190E+0001  2324
 7.23010013997555E+0001  2315
 7.23270014002919E+0001  2323
 7.23530014008284E+0001  2281
 7.23790014013648E+0001  2331
 7.24050014019012E+0001  2274
 7.24310014024377E+0001  2248
 7.24570014029741E+0001  2299
 7.24830014035106E+0001  2283
 7.25090014040470E+0001  2273
 7.25350014045835E+0001  2237
 7.25610014051199E+0001  2299
 7.25870014056563E+0001  2309
 7.26130014061928E+0001  2301
 7.26390014067292E+0001  2239
 7.26650014072657E+0001  2257
 7.26910014078021E+0001  2284
 7.27170014083385E+0001  2243
 7.27430014088750E+0001  2372
 7.27690014094114E+0001  2305
 7.27950014099479E+0001  2320
 7.28210014104843E+0001  2240
 7.28470014110208E+0001  2257
 7.28730014115572E+0001  2310
 7.28990014120936E+0001  2324
 7.29250014126301E+0001  2238
 7.29510014131665E+0001  2314
 7.29770014137030E+0001  2234
 7.30030014142394E+0001  2231
 7.30290014147758E+0001  2247
 7.30550014153123E+0001  2284
 7.30810014158487E+0001  2305
 7.31070014163852E+0001  2257
 7.31330014169216E+0001  2266
 7.31590014174581E+0001  2258
 7.31850014179945E+0001  2237
 7.32110014185309E+0001  2207
 7.32370014190674E+0001  2334
 7.32630014196038E+0001  2223
 7.32890014201403E+0001  2300
 7.33150014206767E+0001  2259
 7.33410014212132E+0001  2365
 7.33670014217496E+0001  2210
 7.33930014222860E+0001  2298
 7.34190014228225E+0001  2337
 7.34450014233589E+0001  2261
 7.34710014238954E+0001  2215
 7.34970014244318E+0001  2220
 7.35230014249682E+0001  2271
 7.35490014255047E+0001  2304
 7.35750014260411E+0001  2288
 7.36010014265776E+0001  2263
 7.36270014271140E+0001  2309
 7.36530014276505E+0001  2288
 7.36790014281869E+0001  2286
 7.37050014287233E+0001  2271
 7.37310014292598E+0001  2308
 7.37570014297962E+0001  2230
 7.37830014303327E+0001  2276
 7.38090014308691E+0001  2302
 7.38350014314055E+0001  2291
 7.38610014319420E+0001  2283
 7.38870014324784E+0001  2322
 7.39130014330149E+0001  2346
 7.39390014335513E+0001  2328
 7.39650014340878E+0001  2299
 7.39910014346242E+0001  2309
 7.40170014351606E+0001  2294
 7.40430014356971E+0001  2279
 7.40690014362335E+0001  2321
 7.40950014367700E+0001  2261
 7.41210014373064E+0001  2346
 7.41470014378428E+0001  2358
 7.41730014383793E+0001  2247
 7.41990014389157E+0001  2268
 7.42250014394522E+0001  2285
 7.42510014399886E+0001  2316
 7.42770014405251E+0001  2305
 7.43030014410615E+0001  2281
 7.43290014415979E+0001  2324
 7.43550014421344E+0001  2355
 7.43810014426708E+0001  2355
 7.44070014432073E+0001  2315
 7.44330014437437E+0001  2296
 7.44590014442801E+0001  2280
 7.44850014448166E+0001  2281
 7.45110014453530E+0001  2305
 7.45370014458895E+0001  2310
 7.45630014464259E+0001  2320
 7.45890014469624E+0001  2325
 7.46150014474988E+0001  2288
 7.46410014480352E+0001  2251
 7.46670014485717E+0001  2312
 7.46930014491081E+0001  2282
 7.47190014496446E+0001  2238
 7.47450014501810E+0001  2256
 7.47710014507174E+0001  2276
 7.47970014512539E+0001  2302
 7.48230014517903E+0001  2284
 7.48490014523268E+0001  2287
 7.48750014528632E+0001  2251
 7.49010014533997E+0001  2299
 7.49270014539361E+0001  2339
 7.49530014544725E+0001  2384
 7.49790014550090E+0001  2378
 7.50050014555454E+0001  2316
 7.50310014560819E+0001  2298
 7.50570014566183E+0001  2312
 7.50830014571548E+0001  2397
 7.51090014576912E+0001  2413
 7.51350014582276E+0001  2345
 7.51610014587641E+0001  2315
 7.51870014593005E+0001  2312
 7.52130014598370E+0001  2369
 7.52390014603734E+0001  2322
 7.52650014609098E+0001  2327
 7.52910014614463E+0001  2359
 7.53170014619827E+0001  2370
 7.53430014625192E+0001  2375
 7.53690014630556E+0001  2290
 7.53950014635921E+0001  2270
 7.54210014641285E+0001  2299
 7.54470014646649E+0001  2376
 7.54730014652014E+0001  2280
 7.54990014657378E+0001  2308
 7.55250014662743E+0001  2273
 7.55510014668107E+0001  2306
 7.55770014673471E+0001  2205
 7.56030014678836E+0001  2215
 7.56290014684200E+0001  2277
 7.56550014689565E+0001  2249
 7.56810014694929E+0001  2271
 7.57070014700294E+0001  2294
 7.57330014705658E+0001  2314
 7.57590014711022E+0001  2244
 7.57850014716387E+0001  2204
 7.58110014721751E+0001  2284
 7.58370014727116E+0001  2283
 7.58630014732480E+0001  2347
 7.58890014737844E+0001  2249
 7.59150014743209E+0001  2168
 7.59410014748573E+0001  2191
 7.59670014753938E+0001  2175
 7.59930014759302E+0001  2274
 7.60190014764667E+0001  2266
 7.60450014770031E+0001  2262
 7.60710014775395E+0001  2182
 7.60970014780760E+0001  2197
 7.61230014786124E+0001  2219
 7.61490014791489E+0001  2253
 7.61750014796853E+0001  2138
 7.62010014802217E+0001  2172
 7.62270014807582E+0001  2173
 7.62530014812946E+0001  2174
 7.62790014818311E+0001  2106
 7.63050014823675E+0001  2186
 7.63310014829040E+0001  2226
 7.63570014834404E+0001  2230
 7.63830014839768E+0001  2136
 7.64090014845133E+0001  2185
 7.64350014850497E+0001  2177
 7.64610014855862E+0001  2153
 7.64870014861226E+0001  2158
 7.65130014866591E+0001  2141
 7.65390014871955E+0001  2159
 7.65650014877319E+0001  2127
 7.65910014882684E+0001  2178
 7.66170014888048E+0001  2176
 7.66430014893413E+0001  2149
 7.66690014898777E+0001  2148
 7.66950014904141E+0001  2187
 7.67210014909506E+0001  2152
 7.67470014914870E+0001  2125
 7.67730014920235E+0001  2136
 7.67990014925599E+0001  2125
 7.68250014930964E+0001  2147
 7.68510014936328E+0001  2161
 7.68770014941692E+0001  2192
 7.69030014947057E+0001  2180
 7.69290014952421E+0001  2139
 7.69550014957786E+0001  2151
 7.69810014963150E+0001  2090
 7.70070014968514E+0001  2009
 7.70330014973879E+0001  2075
 7.70590014979243E+0001  2140
 7.70850014984608E+0001  2170
 7.71110014989972E+0001  2138
 7.71370014995337E+0001  2119
 7.71630015000701E+0001  2118
 7.71890015006065E+0001  2047
 7.72150015011430E+0001  2058
 7.72410015016794E+0001  2057
 7.72670015022159E+0001  2074
 7.72930015027523E+0001  2102
 7.73190015032887E+0001  2109
 7.73450015038252E+0001  2146
 7.73710015043616E+0001  2132
 7.73970015048981E+0001  2129
 7.74230015054345E+0001  2159
 7.74490015059710E+0001  2158
 7.74750015065074E+0001  2133
 7.75010015070438E+0001  2109
 7.75270015075803E+0001  2082
 7.75530015081167E+0001  2086
 7.75790015086532E+0001  2089
 7.76050015091896E+0001  2068
 7.76310015097260E+0001  2017
 7.76570015102625E+0001  2107
 7.76830015107989E+0001  2091
 7.77090015113354E+0001  2022
 7.77350015118718E+0001  2120
 7.77610015124083E+0001  2083
 7.77870015129447E+0001  2059
 7.78130015134811E+0001  2115
 7.78390015140176E+0001  2065
 7.78650015145540E+0001  2088
 7.78910015150905E+0001  2048
 7.79170015156269E+0001  2044
 7.79430015161633E+0001  2019
 7.79690015166998E+0001  2090
 7.79950015172362E+0001  2123
 7.80210015177727E+0001  2129
 7.80470015183091E+0001  2053
 7.80730015188456E+0001  2065
 7.80990015193820E+0001  2030
 7.81250015199184E+0001  2046
 7.81510015204549E+0001  2101
 7.81770015209913E+0001  2029
 7.82030015215278E+0001  2010
 7.82290015220642E+0001  2100
 7.82550015226007E+0001  1993
 7.82810015231371E+0001  2013
 7.83070015236735E+0001  2016
 7.83330015242100E+0001  2053
 7.83590015247464E+0001  2141
 7.83850015252829E+0001  2058
 7.84110015258193E+0001  2099
 7.84370015263557E+0001  2055
 7.84630015268922E+0001  2077
 7.84890015274286E+0001  2034
 7.85150015279651E+0001  2067
 7.85410015285015E+0001  2088
 7.85670015290380E+0001  2081
 7.85930015295744E+0001  2168
 7.86190015301108E+0001  2041
 7.86450015306473E+0001  2027
 7.86710015311837E+0001  2074
 7.86970015317202E+0001  2130
 7.87230015322566E+0001  2120
 7.87490015327930E+0001  2078
 7.87750015333295E+0001  2052
 7.88010015338659E+0001  2081
 7.88270015344024E+0001  2082
 7.88530015349388E+0001  2118
 7.88790015354753E+0001  2105
 7.89050015360117E+0001  2103
 7.89310015365481E+0001  2120
 7.89570015370846E+0001  2180
 7.89830015376210E+0001  2100
 7.90090015381575E+0001  2125
 7.90350015386939E+0001  2115
 7.90610015392303E+0001  2154
 7.90870015397668E+0001  2108
 7.91130015403032E+0001  2082
 7.91390015408397E+0001  2102
 7.91650015413761E+0001  2165
 7.91910015419126E+0001  2177
 7.92170015424490E+0001  2163
 7.92430015429854E+0001  2147
 7.92690015435219E+0001  2120
 7.92950015440583E+0001  2121
 7.93210015445948E+0001  2161
 7.93470015451312E+0001  2134
 7.93730015456676E+0001  2099
 7.93990015462041E+0001  2147
 7.94250015467405E+0001  2160
 7.94510015472770E+0001  2201
 7.94770015478134E+0001  2225
 7.95030015483499E+0001  2157
 7.95290015488863E+0001  2062
 7.95550015494227E+0001  2115
 7.95810015499592E+0001  2143
 7.96070015504956E+0001  2154
 7.96330015510321E+0001  2195
 7.96590015515685E+0001  2178
 7.96850015521050E+0001  2217
 7.97110015526414E+0001  2207
 7.97370015531778E+0001  2113
 7.97630015537143E+0001  2106
 7.97890015542507E+0001  2107
 7.98150015547872E+0001  2100
 7.98410015553236E+0001  2136
 7.98670015558600E+0001  2163

