#Data reduced with Dominiques SARed v. 1.0
#wavelength: 5.1386
#q/A-1 	 Icorr/a.u. 	 sIcorr /a.u. 	Ispec/a.u. 	 sIspec/a.u. 	 Ibg/a.u. 	 sIbg/a.u. 	 2th/°
0.0	0.0036060580669898916	0.00033703075699319685	0.004525819015993169	0.00016923835916768802	0.0009197609490032776	0.00029145858873197737	0.0
0.00034145415721603483	0.012926804690881205	0.0008939733687201217	0.016218816970204653	0.00032034327184624474	0.003292012279323448	0.0008346068368780869	0.016000000000000014
0.000682908307775245	0.01893573013628571	0.001262004094882489	0.023764245059574755	0.0003876052362576864	0.004828514923289046	0.0012010064597352478	0.03200000000000003
0.0010243624450208065	0.016282290855256	0.001099593984778608	0.020495749867994496	0.00035968037179963185	0.004213459012738496	0.0010391039223789777	0.04800000000000004
0.0013658165622958943	0.011790651993996133	0.0007319654547171458	0.014515800238446078	0.00030227179651652175	0.002725148244449945	0.0006666372236306283	0.06400000000000006
0.0017072706529436851	0.011138074000583491	0.00045238203098212104	0.012583492686038025	0.0002808545158551467	0.001445418685454534	0.0003546410056370806	0.08000000000000007
0.002048724710307356	0.014802433532542713	0.0003608372518759033	0.015557244630458645	0.0003116940347027511	0.0007548110979159313	0.00018179755518728602	0.09600000000000009
0.002390178727730083	0.022451354773428297	0.00039674984141928896	0.022952812695694748	0.0003781029992527601	0.00050145792226645	0.0001202021573113322	0.1120000000000001
0.002731632698555046	0.030958383821423973	0.00046056904479292255	0.031481465907887175	0.0004423082890128918	0.0005230820864632035	0.00012840257977141	0.1280000000000001
0.003073086616125423	0.03780543982647799	0.0005154423243039206	0.038491568322154626	0.0004885080737668648	0.0006861284956766361	0.00016444041944855102	0.14400000000000013
0.0034145404737843947	0.04358445670227343	0.000556054215593569	0.04441220512456017	0.0005242071676996663	0.0008277484222867402	0.00018548082383813494	0.16000000000000014
0.0037559942648751404	0.048371273642632294	0.0005903751530486336	0.0493475589988885	0.0005521056013618507	0.0009762853562562058	0.00020909860420879612	0.17600000000000016
0.004097447982740846	0.053098248258359515	0.0006223554478216548	0.05421798659272857	0.0005782720122564158	0.0011197383343690532	0.00023006039049390498	0.19200000000000017
0.0044389016207246924	0.05719301106002702	0.0006624268739472821	0.058569164666777876	0.0006005241722234232	0.001376153606750859	0.0002796070133293169	0.20800000000000018
0.004780355172169867	0.06113457976120165	0.0007158538888811463	0.06287355890387875	0.0006215704733318835	0.001738979142677097	0.00035510130513451924	0.2240000000000002
0.005121808630419555	0.06569641899047873	0.0007627776153046299	0.06775380175879231	0.0006444760684294402	0.0020573827683135707	0.0004080199598445516	0.2400000000000002
0.005463261988816949	0.06923758176207709	0.0008108535628131238	0.07167787571273287	0.00066206308628345	0.0024402939506557924	0.00046814097247257645	0.2560000000000002
0.005804715240705238	0.07360515785298175	0.0008612911567043209	0.07638465953623166	0.000682699495655243	0.002779501683249919	0.000525113183274943	0.27200000000000024
0.006146168379427613	0.07832429968553456	0.0009032829344432096	0.08134412359174667	0.0007037358753410896	0.003019823906212106	0.0005662825067174918	0.28800000000000026
0.006487621398327273	0.08212663867760032	0.0009426629325028336	0.08539896651405494	0.0007201993649570174	0.0032723278364546163	0.0006082156517472653	0.30400000000000027
0.006829074290747414	0.0858868761976296	0.0009912480696277956	0.0894921900102591	0.0007362716809111661	0.003605313812629503	0.0006636842226760232	0.3200000000000003
0.007170527050031234	0.08975257848826104	0.0010452521382570616	0.09366012669533111	0.0007521698497531933	0.003907548207070064	0.0007258047600100305	0.3360000000000003
0.007511979669521937	0.0938215492422929	0.0010878425292893826	0.09795525344128322	0.0007681664751905257	0.004133704198990331	0.0007702737402534796	0.3520000000000003
0.00785343214256273	0.09669736525848713	0.0011321429523444572	0.10113809362504658	0.0007794415236756383	0.004440728366559454	0.0008211081388668751	0.3680000000000003
0.008194884462496822	0.09855588412285671	0.0011660257959505908	0.1032800413233663	0.0007865045635896396	0.004724157200509595	0.0008608290935341809	0.38400000000000034
0.00853633662266742	0.0983308065433402	0.0012078720905687077	0.10342415686941848	0.0007859299075629213	0.005093350326078281	0.0009172072653293575	0.40000000000000036
0.008877788616417743	0.09571760948652994	0.0012650309228894692	0.10122176921806937	0.0007765133565440813	0.005504159731539435	0.0009986642293459932	0.41600000000000037
0.009219240437091004	0.09467981927667986	0.0012940807461552875	0.10038517216062776	0.0007724432916470287	0.0057053528839479	0.0010382563935557193	0.4320000000000004
0.009560692078030425	0.09790794996436825	0.001328815920925257	0.10381435122523049	0.0007846518885963548	0.005906401260862237	0.0010724146424898405	0.4480000000000004
0.009902143532579236	0.10604265127718104	0.0014027626743162358	0.11226907360125155	0.0008150353005546727	0.0062264223240704976	0.00114169198092331	0.4640000000000004
0.010243594794080657	0.11858167651989564	0.0014744159128035	0.12503678371535537	0.0008591547362807443	0.00645510719545973	0.0011982301210763078	0.4800000000000004
0.010585045855877929	0.13105909122589807	0.001558253970088622	0.13776194056397584	0.0009008392806151222	0.0067028493380777805	0.0012714731714817192	0.49600000000000044
0.010926496711314277	0.1402963396650683	0.0016516960674064773	0.14738613031151884	0.0009307359210908246	0.007089790646450532	0.0013644891147521982	0.5120000000000005
0.011267947353732948	0.14309296397563953	0.0017664396900747518	0.15075485552906137	0.0009399664929972819	0.007661891553421851	0.0014955842238783398	0.5280000000000005
0.011609397776477185	0.13853479117491893	0.0018179627591724476	0.14650365666620738	0.0009250366013597748	0.007968865491288434	0.001565022645166087	0.5440000000000005
0.011950847972890236	0.12713325896541441	0.0017251238228081273	0.13490437760874685	0.0008861532783255577	0.007771118643332434	0.0014801299170454578	0.5600000000000005
0.01229229793631535	0.10865413339863318	0.0015657974345521617	0.11590396058974928	0.000820193722233266	0.007249827191116099	0.0013337930364412881	0.5760000000000005
0.012633747660095791	0.08766764637202755	0.001351382406820699	0.09394775558218194	0.0007375819879282697	0.0062801092101543885	0.0011323458926265804	0.5920000000000005
0.012975197137574815	0.06773565899531214	0.0011705209504513587	0.07315454767719294	0.0006501794568169304	0.005418888681880804	0.0009733375413384575	0.6080000000000005
0.01331664636209569	0.053363983354030996	0.0010653031035847238	0.05835977576449759	0.0005800586214960426	0.004995792410466598	0.0008935338259603581	0.6240000000000006
0.013658095327001692	0.04792946634632862	0.0010144896913781825	0.0526835933839065	0.0005504132465597113	0.004754127037577878	0.000852193987261233	0.6400000000000006
0.013999544025636088	0.05141531619583045	0.0010239423305331641	0.05610803934367648	0.0005672437077886194	0.004692723147846033	0.0008524625928637026	0.6560000000000006
0.01434099245134217	0.06504094461046453	0.0010935928762756575	0.06986323566831246	0.0006321315989106759	0.004822291057847934	0.0008923872593776192	0.6720000000000006
0.01468244059746322	0.08845658304127668	0.001229251665773326	0.09374117134923875	0.0007313900681492454	0.005284588307962058	0.0009879920171839138	0.6880000000000006
0.015023888457342531	0.11597014207500003	0.001419345823656044	0.12201971692730365	0.0008336254513527422	0.006049574852303613	0.0011487433020421886	0.7040000000000006
0.015365336024323401	0.13547920364209187	0.0015802605796792226	0.14229361541339672	0.0008994334121871649	0.006814411771304852	0.001299324069171916	0.7200000000000006
0.015706783291749137	0.13482403478126084	0.001650196965564735	0.14228242774104896	0.0008986844791894204	0.00745839295978812	0.0013840217599528917	0.7360000000000007
0.016048230252963046	0.11366606397504261	0.0015482140438645695	0.12093698746548236	0.0008278677584189579	0.007270923490439739	0.0013082819650938604	0.7520000000000007
0.016389676901308443	0.0816547831176718	0.0013045755459588563	0.08790547579176132	0.000705195744246507	0.006250692674089519	0.0010975501434606363	0.7680000000000007
0.01673112323012865	0.05182699967182746	0.0010223680830037344	0.056698267375324664	0.0005658191276091333	0.004871267703497202	0.0008515193550215813	0.7840000000000007
0.017072569232766996	0.030928527774428734	0.0007453976517407813	0.034358709353693	0.0004399752372191434	0.003430181579264264	0.000601697141305017	0.8000000000000007
0.017414014902566815	0.01804182772737523	0.0005520606662130778	0.02050562131862617	0.00033946759497723684	0.0024637935912509385	0.0004353535702621468	0.8160000000000007
0.017755460232871452	0.011290160218362015	0.0004325396289796581	0.013194368437203731	0.0002719269505009295	0.0019042082188417168	0.0003363722108455532	0.8320000000000007
0.018096905217024246	0.007798045298433192	0.0003611643908800291	0.009377088766012356	0.00022890699452530997	0.0015790434675791642	0.00027935873907420933	0.8480000000000008
0.01843834984836856	0.006175345830999266	0.0003172760115023787	0.007542394100052519	0.00020503133045073096	0.0013670482690532532	0.00024212852167487562	0.8640000000000008
0.018779794120247748	0.0055202774056260576	0.0002927735921586159	0.006772269812347393	0.00019403314547541937	0.0012519924067213354	0.0002192430494277397	0.8800000000000008
0.01912123802600518	0.006250359528771116	0.0003097474383725591	0.007559986948538721	0.00020466442380976557	0.0013096274197676055	0.00023249935312808713	0.8960000000000008
0.019462681558984233	0.009250516592308904	0.0003449827803754977	0.010625808419538262	0.00024228146382041313	0.0013752918272293595	0.0002455866670742667	0.9120000000000008
0.019804124712528293	0.014282188080975712	0.00038451764624050275	0.01568356075336383	0.0002940164896027984	0.0014013726723881173	0.00024780662644889855	0.9280000000000008
0.020145567479980742	0.020684546304894594	0.0004271345813153114	0.022092403894988642	0.0003486701727071065	0.0014078575900940474	0.0002467246668247884	0.9440000000000008
0.02048700985468498	0.025727285825403942	0.0004515942274744635	0.02707103131621815	0.0003857074104854347	0.0013437454908142106	0.00023487686089710476	0.9600000000000009
0.02082845182998442	0.025540952208415423	0.00044474194434438157	0.026811117059385783	0.00038358160011024885	0.0012701648509703591	0.0002250789930581754	0.9760000000000009
0.02116989339922247	0.02079911858546326	0.00039970175941179037	0.021911684542840044	0.000346457355014168	0.0011125659573767864	0.00019932084094110054	0.9920000000000009
0.021511334555742535	0.014748431039839308	0.0003339700950843045	0.015650402927107843	0.00029250084243290307	0.0009019718872685341	0.00016118089708976486	1.008000000000001
0.02185277529288807	0.009542605567297949	0.0002695743476561434	0.01025941373973751	0.00023653542521405996	0.0007168081724395609	0.00012931094900679957	1.024000000000001
0.022194215604002494	0.006307466119831464	0.00022199042202693812	0.006900631505780725	0.00019369344228609476	0.0005931653859492618	0.0001084555110958469	1.040000000000001
0.02253565548242926	0.004676279437082816	0.00019728254783948164	0.005239971940095767	0.00016852524714564747	0.0005636925030129514	0.0001025653194629442	1.056000000000001
0.022877094921511826	0.0039718282006669554	0.00018481923569247215	0.004503601292930052	0.00015601690655341123	0.0005317730922630969	9.908014307344194e-05	1.072000000000001
0.023218533914593643	0.003637238643358736	0.00017599816589133647	0.00413711219822146	0.00014934343051216373	0.0004998735548627239	9.312300553554373e-05	1.088000000000001
0.023559972455018188	0.0038978637964210234	0.00017846488228845728	0.0043880075117249005	0.00015362116332652822	0.0004901437153038771	9.08308999649186e-05	1.104000000000001
0.02390141053612894	0.004810272509216396	0.00019257225125929314	0.005314291661651729	0.00016884699789510748	0.0005040191524353334	9.260001758575376e-05	1.120000000000001
0.024242848151269387	0.006558936264875908	0.0002231870819527712	0.0071347648270460836	0.00019538796261822815	0.0005758285621701751	0.00010787037412788962	1.136000000000001
0.024584285293783033	0.010417215635564981	0.00027620230579504323	0.011109931529107605	0.0002435243306624053	0.0006927158935426232	0.00013032119590429658	1.152000000000001
0.024925721957013376	0.016900588796280615	0.0003480599427082794	0.017749318489659043	0.00030749592404566797	0.0008487296933784286	0.0001630704768294725	1.168000000000001
0.02526715813430394	0.02522001086851994	0.00041521904911720096	0.0261727352644681	0.000373062719099892	0.0009527243959481581	0.000182293901070737	1.184000000000001
0.025608593818998247	0.033345860990618474	0.00046301417618137855	0.03430210431047054	0.0004266646301724674	0.0009562433198520614	0.00017983164544849232	1.200000000000001
0.025950029004439837	0.03730518192950207	0.00048581528396630756	0.038258144037681005	0.0004501302992293075	0.0009529621081789345	0.0001827544906452319	1.216000000000001
0.026291463683972244	0.035293560921965936	0.0004656568664264486	0.03614296015780051	0.0004370209361951462	0.0008493992358345723	0.00016077629979949578	1.232000000000001
0.026632897850939034	0.02870082007175991	0.00041200365423470117	0.029369089714867028	0.00039352937438541714	0.0006682696431071185	0.0001219903381361385	1.248000000000001
0.02697433149868377	0.020530235325970744	0.0003454593216773093	0.02103586882870538	0.0003327548893443496	0.0005056335027346354	9.282417008073005e-05	1.2640000000000011
0.027315764620550024	0.013570567266365937	0.0002797640928991577	0.013951122763414453	0.00027076763937714947	0.0003805554970485167	7.037636777935105e-05	1.2800000000000011
0.02765719720988138	0.008647590182069353	0.00022433321483823198	0.008951643379107348	0.00021672093667976543	0.00030405319703799506	5.794330750225985e-05	1.2960000000000012
0.027998629260021446	0.00579039123798108	0.00018381390346898155	0.006038740878187451	0.00017783343294642707	0.0002483496402063708	4.650614190612565e-05	1.3120000000000012
0.02834006076431381	0.004217700389564533	0.00015662271625950847	0.004411749620303319	0.00015183134406681085	0.00019404923073878608	3.844370179069907e-05	1.3280000000000012
0.028681491716102115	0.0032403551637682866	0.00013688074053564163	0.0033999457670984257	0.00013313260941858604	0.00015959060333013909	3.1812661614267054e-05	1.3440000000000012
0.02902292210872996	0.002491865462077598	0.00012171613795368191	0.002654669992848844	0.00011749322844887605	0.00016280453077124603	3.178300657615559e-05	1.3600000000000012
0.029364351935540996	0.0019058724079070448	0.00010753082407888884	0.002059585576016845	0.00010336967608351779	0.00015371316810980026	2.9624115066505372e-05	1.3760000000000012
0.02970578118987888	0.001585957400616227	9.746701259006858e-05	0.0017142729074411534	9.417865149227516e-05	0.00012831550682492631	2.5103787489722835e-05	1.3920000000000012
0.03004720986508726	0.0013605629859372286	9.101674728162336e-05	0.0014862564005262465	8.754993331149963e-05	0.00012569341458901787	2.4880865396502243e-05	1.4080000000000013
0.030388637954509818	0.0011531887015014037	8.626623732256366e-05	0.0012923702474049096	8.152810755105248e-05	0.00013918154590350593	2.8196300837820847e-05	1.4240000000000013
0.03073006545149023	0.0011442117060121817	8.46313745732982e-05	0.0012718571925989714	8.076840317143333e-05	0.0001276454865867897	2.5277155917996466e-05	1.4400000000000013
0.0310714923493722	0.0013231095009069264	8.93369432951687e-05	0.0014438396815797659	8.594184780118208e-05	0.00012073018067283951	2.4394430385697557e-05	1.4560000000000013
0.03141291864149943	0.0014196803001587312	9.214056315686859e-05	0.0015435249425614793	8.877191180473205e-05	0.0001238446424027481	2.4686657396208227e-05	1.4720000000000013
0.03175434432121564	0.001482896699481673	9.211865266653348e-05	0.001586070865903148	8.992953820905988e-05	0.00010317416642147503	1.996307407697206e-05	1.4880000000000013
0.03209576938186455	0.0014404099294933314	8.969915352511711e-05	0.0015250038283660772	8.812703104249333e-05	8.459389887274567e-05	1.6720183693905555e-05	1.5040000000000013
0.03243719381678992	0.0012403285701482252	8.35699978698164e-05	0.0013220401994207137	8.198963623628301e-05	8.17116292724885e-05	1.6175416340951044e-05	1.5200000000000014
0.032778617619335496	0.0011276490325069035	8.003830348342144e-05	0.0012064681574015415	7.825091741769493e-05	7.881912489463792e-05	1.6820343272161857e-05	1.5360000000000014
0.03312004078284504	0.0010058062799438736	7.672387973093138e-05	0.001093540595838128	7.439819759955274e-05	8.773431589425455e-05	1.874731753889943e-05	1.5520000000000014
0.033461463300662346	0.000935374689887147	7.54024437437889e-05	0.0010381532770810083	7.238347639892896e-05	0.00010277858719386136	2.1122520373784582e-05	1.5680000000000014
0.03380288516613119	0.0009721994615076787	7.688816641362561e-05	0.0010809470006064204	7.375302147874765e-05	0.00010874753909874163	2.1732049079752552e-05	1.5840000000000014
0.03414430637259539	0.0010292414087624624	7.91666197872665e-05	0.0011471872791011066	7.585517474949912e-05	0.0001179458703386441	2.2657143515116122e-05	1.6000000000000014
0.03448572691339876	0.001154486030372633	8.3687624373129e-05	0.0012807924467996131	8.005256884522915e-05	0.0001263064164269801	2.4396817302627447e-05	1.6160000000000014
0.03482714678188512	0.0013766124463607723	9.158134081064058e-05	0.0015195963289296528	8.711387634923728e-05	0.00014298388256888048	2.825446039273267e-05	1.6320000000000014
0.035168565971398336	0.0017295326301156413	0.00010233099667748432	0.001890370514627915	9.708659725505055e-05	0.0001608378845122738	3.233922563146679e-05	1.6480000000000015
0.035509984475282245	0.0022939658466671346	0.00011555525138839595	0.0024606555109798617	0.00011066054096803324	0.00016668966431272698	3.32755284871273e-05	1.6640000000000015
0.035851402286880725	0.003202454686039888	0.00013457833376647802	0.0033882196972238364	0.00012971160390589203	0.0001857650111839483	3.586401722510369e-05	1.6800000000000015
0.03619281939953766	0.004660749432452684	0.0001624627113430544	0.004891534905310031	0.00015570683628481958	0.00023078547285734712	4.636284839296449e-05	1.6960000000000015
0.036534235806596954	0.006673581195079594	0.00019317197990873677	0.006942784907836591	0.00018535789451506923	0.0002692037127569977	5.438625527467272e-05	1.7120000000000015
0.036875651501402505	0.008704568812869656	0.00021754470606855173	0.008977963807387352	0.00021063760384549605	0.000273394994517696	5.438289238979882e-05	1.7280000000000015
0.03721706647729824	0.010037053524311166	0.00023042493049379564	0.010289535838776651	0.00022534026031544363	0.0002524823144654856	4.813954376641561e-05	1.7440000000000015
0.037558480727628116	0.01028214733927647	0.00023163775862568485	0.010506388630433468	0.0002275112106620441	0.00022424129115699697	4.352815461539829e-05	1.7600000000000016
0.03789989424573607	0.009516446710567929	0.00022202753028304037	0.009707963933593177	0.00021849950433121395	0.00019151722302524816	3.942322679081745e-05	1.7760000000000016
0.038241307024966066	0.007968083996804253	0.00020219563324029103	0.008120879419478765	0.00019968969485699187	0.00015279542267451204	3.17348368416123e-05	1.7920000000000016
0.038582719058662104	0.006128134620223879	0.00017715833116170354	0.00625919443351171	0.00017517498275078933	0.000131059813287831	2.6434820185892772e-05	1.8080000000000016
0.03892413034016816	0.004597505013130101	0.00015390184772541516	0.00472155715302607	0.00015203634791788052	0.00012405213989596884	2.3889906761853704e-05	1.8240000000000016
0.03926554086282827	0.0033706370491592245	0.00013255635476288108	0.0034854530439303606	0.00013051474231021214	0.00011481599477113595	2.3175185602745684e-05	1.8400000000000016
0.03960695061998643	0.002425510575332976	0.00011202090232169923	0.0025113225902768056	0.00011067399479040831	8.581201494382989e-05	1.7319048302385232e-05	1.8560000000000016
