#Initialized GISAXS Reduction. Version 0.21
#Date: 15. May 2017 10:26AM
#Author: Dominique Dresen
#Contact: Dominique.Dresen@uni-koeln.de
#Loading DresenDisch_DD191_1_1_18156.dat
#Loading 1 files
#Loaded: ./DresenDisch_DD191_1_1_18156.1.tif
#Merging data
#Saving data to DirectBeam.h5
#Saved data to DirectBeam.h5
#Plotting data.
#q/A-1	I/a.u.	sI/a.u.
-0.134223914873	1.0	1.0
-0.129581870104	1.0	1.0
-0.126796458947	2.0	1.41421356237
-0.124939443206	1.0	1.0
-0.122153809324	1.0	1.0
-0.120296647831	1.0	1.0
-0.117975116231	1.0	1.0
-0.116117828231	1.0	1.0
-0.115653497633	1.0	1.0
-0.104972979949	1.0	1.0
-0.100793191756	1.0	1.0
-0.100328755793	1.0	1.0
-0.0989354301948	2.0	1.41421356237
-0.0980065318429	1.0	1.0
-0.0956842355919	1.0	1.0
-0.0947552972303	1.0	1.0
-0.0928973870613	1.0	1.0
-0.091968415473	2.0	1.41421356237
-0.0901104398359	1.0	1.0
-0.0863943617866	3.0	1.73205080757
-0.0859298404122	1.0	1.0
-0.0854653165016	1.0	1.0
-0.079426281101	1.0	1.0
-0.0789617231215	1.0	1.0
-0.0775680352533	2.0	1.41421356237
-0.076174326778	2.0	1.41421356237
-0.0747805980654	1.0	1.0
-0.0729222622744	2.0	1.41421356237
-0.0724576729107	1.0	1.0
-0.0705992942031	1.0	1.0
-0.0696700922895	1.0	1.0
-0.0692054882407	1.0	1.0
-0.0687408821488	1.0	1.0
-0.0678116638907	1.0	1.0
-0.0585190589731	2.0	1.41421356237
-0.0580544096737	1.0	1.0
-0.0571251059464	2.0	1.41421356237
-0.0543371547234	1.0	1.0
-0.0538724904909	1.0	1.0
-0.0524784883041	1.0	1.0
-0.0520138177911	1.0	1.0
-0.0515491457423	1.0	1.0
-0.0510844721714	1.0	1.0
-0.0496904424632	1.0	1.0
-0.0478317157079	2.0	1.41421356237
-0.0473670304538	1.0	1.0
-0.0469023438011	2.0	1.41421356237
-0.0464376557634	3.0	1.73205080757
-0.0459729663544	2.0	1.41421356237
-0.0455082755879	1.0	1.0
-0.0450435834776	1.0	1.0
-0.0445788900372	1.0	1.0
-0.0441141952804	1.0	1.0
-0.0427201032489	1.0	1.0
-0.0422554033638	1.0	1.0
-0.0413259998639	2.0	1.41421356237
-0.0403965914826	1.0	1.0
-0.0399318854957	2.0	1.41421356237
-0.0385377605146	3.0	1.73205080757
-0.0376083381475	1.0	1.0
-0.036678911338	4.0	2.0
-0.0362141963017	1.0	1.0
-0.0357494801959	2.0	1.41421356237
-0.0352847630344	2.0	1.41421356237
-0.0348200448308	2.0	1.41421356237
-0.0338906053527	1.0	1.0
-0.0334258841055	4.0	2.0
-0.0329611618712	1.0	1.0
-0.0324964386635	1.0	1.0
-0.0320317144961	2.0	1.41421356237
-0.0315669893827	1.0	1.0
-0.0311022633371	1.0	1.0
-0.0306375363731	3.0	1.73205080757
-0.0301728085042	2.0	1.41421356237
-0.0297080797442	4.0	2.0
-0.0292433501069	2.0	1.41421356237
-0.028778619606	2.0	1.41421356237
-0.0283138882552	2.0	1.41421356237
-0.0278491560682	2.0	1.41421356237
-0.0273844230588	4.0	2.0
-0.0269196892406	1.0	1.0
-0.0264549546274	1.0	1.0
-0.025525483071	5.0	2.2360679775
-0.0250607461551	4.0	2.0
-0.0245960084991	2.0	1.41421356237
-0.0241312701167	2.0	1.41421356237
-0.0236665310217	1.0	1.0
-0.0232017912277	4.0	2.0
-0.0222723095978	2.0	1.41421356237
-0.0218075677893	1.0	1.0
-0.0213428253368	3.0	1.73205080757
-0.0208780822539	2.0	1.41421356237
-0.0204133385545	2.0	1.41421356237
-0.0194838493607	4.0	2.0
-0.0190191038937	2.0	1.41421356237
-0.0185543578651	1.0	1.0
-0.0180896112886	2.0	1.41421356237
-0.0176248641777	5.0	2.2360679775
-0.0171601165463	2.0	1.41421356237
-0.0166953684082	3.0	1.73205080757
-0.0162306197769	3.0	1.73205080757
-0.0143716205957	5.0	2.2360679775
-0.0139068697049	4.0	2.0
-0.0134421184034	4.0	2.0
-0.0129773667049	1.0	1.0
-0.0125126146232	3.0	1.73205080757
-0.0120478621719	5.0	2.2360679775
-0.0115831093647	2.0	1.41421356237
-0.0111183562155	3.0	1.73205080757
-0.0106536027379	5.0	2.2360679775
-0.0101888489456	5.0	2.2360679775
-0.00972409485246	12.0	3.46410161514
-0.0092593404721	9.0	3.0
-0.00879458581827	8.0	2.82842712475
-0.00832983090469	10.0	3.16227766017
-0.0078650757451	7.0	2.64575131106
-0.00740032035322	11.0	3.31662479036
-0.00693556474277	5.0	2.2360679775
-0.00647080892749	7.0	2.64575131106
-0.0060060529211	14.0	3.74165738677
-0.00554129673731	7.0	2.64575131106
-0.00507654038987	9.0	3.0
-0.0046117838925	15.0	3.87298334621
-0.00414702725892	20.0	4.472135955
-0.00368227050286	24.0	4.89897948557
-0.00321751363805	33.0	5.74456264654
-0.00275275667821	51.0	7.14142842854
-0.00228799963706	350.0	18.7082869339
-0.00182324252834	45614.0	213.574343028
-0.00135848536578	211927.0	460.355297569
-0.000893728163087	337237.0	580.721103457
-0.000428970934002	366427.0	605.332140234
3.57863077527e-05	386126.0	621.390376495
0.00050054354845	351126.0	592.558857836
0.000965300774365	171703.0	414.370607066
0.00143005797177	6107.0	78.1472968183
0.00189481512694	157.0	12.5299640861
0.00235957222614	69.0	8.30662386292
0.00282432925566	47.0	6.8556546004
0.00328908620176	16.0	4.0
0.00375384305072	30.0	5.47722557505
0.00421859978882	18.0	4.24264068712
0.00468335640231	17.0	4.12310562562
0.00514811287749	10.0	3.16227766017
0.00561286920062	9.0	3.0
0.00607762535798	10.0	3.16227766017
0.00654238133584	12.0	3.46410161514
0.00700713712047	12.0	3.46410161514
0.00747189269815	5.0	2.2360679775
0.00793664805515	15.0	3.87298334621
0.00840140317775	13.0	3.60555127546
0.00886615805222	15.0	3.87298334621
0.00933091266483	7.0	2.64575131106
0.00979566700186	4.0	2.0
0.0102604210496	2.0	1.41421356237
0.0107251747943	5.0	2.2360679775
0.0111899282222	5.0	2.2360679775
0.0116546813196	4.0	2.0
0.0121194340729	2.0	1.41421356237
0.0125841864682	4.0	2.0
0.0130489384918	6.0	2.44948974278
0.01351369013	3.0	1.73205080757
0.0139784413692	5.0	2.2360679775
0.0144431921955	1.0	1.0
0.0149079425952	2.0	1.41421356237
0.0153726925546	1.0	1.0
0.01583744206	2.0	1.41421356237
0.0167669396539	2.0	1.41421356237
0.0172316877149	1.0	1.0
0.017696435267	2.0	1.41421356237
0.0181611822965	2.0	1.41421356237
0.0186259287896	2.0	1.41421356237
0.0190906747326	1.0	1.0
0.0200201649134	4.0	2.0
0.0204849091238	4.0	2.0
0.0209496527292	4.0	2.0
0.0214143957159	6.0	2.44948974278
0.0218791380701	3.0	1.73205080757
0.0223438797782	3.0	1.73205080757
0.0228086208264	2.0	1.41421356237
0.023273361201	5.0	2.2360679775
0.0237381008882	2.0	1.41421356237
0.0242028398744	3.0	1.73205080757
0.0246675781458	1.0	1.0
0.0251323156887	1.0	1.0
0.0255970524894	1.0	1.0
0.0260617885341	2.0	1.41421356237
0.0265265238091	3.0	1.73205080757
0.0269912583008	1.0	1.0
0.0274559919953	1.0	1.0
0.027920724879	2.0	1.41421356237
0.0283854569381	3.0	1.73205080757
0.0288501881589	3.0	1.73205080757
0.0293149185277	1.0	1.0
0.0302443766544	1.0	1.0
0.0307091043848	3.0	1.73205080757
0.0311738312083	3.0	1.73205080757
0.0316385571112	1.0	1.0
0.0400034502948	3.0	1.73205080757
0.0404681560989	3.0	1.73205080757
0.0423269672277	4.0	2.0
0.0437210624984	1.0	1.0
0.0451151461496	1.0	1.0
0.0455798380538	3.0	1.73205080757
0.0460445286122	1.0	1.0
0.0465092178108	2.0	1.41421356237
0.0469739056362	1.0	1.0
0.0474385920744	1.0	1.0
0.0483679607349	1.0	1.0
0.0488326429296	1.0	1.0
0.0492973236824	1.0	1.0
0.0497620029795	2.0	1.41421356237
0.0511560319999	1.0	1.0
0.0520853771505	3.0	1.73205080757
0.0530147161493	2.0	1.41421356237
0.0534793833075	1.0	1.0
0.0539440488867	1.0	1.0
0.054408712873	3.0	1.73205080757
0.0553380360125	1.0	1.0
0.0558026951382	1.0	1.0
0.0562673526162	1.0	1.0
0.0567320084329	1.0	1.0
0.0571966625746	1.0	1.0
0.0576613150274	1.0	1.0
0.058590614812	1.0	1.0
0.0590552621163	1.0	1.0
0.059519907677	1.0	1.0
0.0604491935126	1.0	1.0
0.0627723766288	1.0	1.0
0.0637016369982	2.0	1.41421356237
0.0641662643687	1.0	1.0
0.0655601350589	1.0	1.0
0.0660247547695	2.0	1.41421356237
0.0688124316195	1.0	1.0
0.0697416411306	3.0	1.73205080757
0.0706708424062	1.0	1.0
0.0720646286383	1.0	1.0
0.0725292198124	1.0	1.0
0.0729938088455	1.0	1.0
0.0734583957238	1.0	1.0
0.0739229804336	1.0	1.0
0.0757812973138	1.0	1.0
0.0767104423868	1.0	1.0
0.0771750115335	1.0	1.0
0.078104142979	2.0	1.41421356237
0.0790332652025	1.0	1.0
0.0818205754456	1.0	1.0
0.0832141981487	1.0	1.0
0.0846077987466	1.0	1.0
0.0860013768694	2.0	1.41421356237
0.086465897852	1.0	1.0
0.0883239561256	1.0	1.0
0.0892529696766	1.0	1.0
0.0897174725078	1.0	1.0
0.0915754572173	1.0	1.0
0.0943623529307	1.0	1.0
0.096220227895	1.0	1.0
0.0985425076107	1.0	1.0
0.105508903743	1.0	1.0
0.105973305759	1.0	1.0
0.106437704648	1.0	1.0
0.108295268662	1.0	1.0
0.11108151856	1.0	1.0
0.111545882153	1.0	1.0
0.120368149605	1.0	1.0
0.123153866965	1.0	1.0
0.124082410506	1.0	1.0
0.129653360525	1.0	1.0
0.130117581834	1.0	1.0
0.138472896026	1.0	1.0
0.147755023631	1.0	1.0
0.151467392996	1.0	1.0
0.151931419221	1.0	1.0
0.15471548206	1.0	1.0
0.158427310006	1.0	1.0
0.158891267634	1.0	1.0
0.16492228579	1.0	1.0
0.169097126823	1.0	1.0
0.182546597825	1.0	1.0
0.198309162287	1.0	1.0
0.207114749893	1.0	1.0
0.217307939342	1.0	1.0
0.246942747809	1.0	1.0
0.269612005383	1.0	1.0
0.277010175306	1.0	1.0
0.301039580634	1.0	1.0
0.301501456913	2.0	1.41421356237
0.30196332436	1.0	1.0
0.302425182964	1.0	1.0
0.319969124905	1.0	1.0
