#Loaded raw file: ES_S14_30K_2mT_ZFC_Remanence_reduced_in_x_ai_uu_qz_I.xy
#Loaded data range: 0.005 .. inf
#Divided data by: 3.42194084348
#Performed footprint correction
#Beamwidth: 1.0
#Samplelength: 14.0
#Wavelength: 5.1386
#q / A-1 	 I / a.u. 	 sI / a.u. 
0.00507734505523	0.964224784953	0.0103352492332
0.00592356766726	1.0	0.0108925167979
0.00676978955753	0.984633998557	0.0107901873023
0.00761601062293	0.977087379445	0.00923604828687
0.00846223076033	0.980388056497	0.00938015570748
0.00930844986663	0.973649664768	0.00868096627737
0.0101546678387	0.904463722825	0.00826922289742
0.0110008845735	0.803215854394	0.00725263611907
0.0118470999679	0.688614170661	0.00593747347936
0.0126933139187	0.550285768298	0.00532046195218
0.0135395263229	0.404242785619	0.003608807672
0.0143857370773	0.271307328239	0.0031704941529
0.0152319460789	0.168466764306	0.0019507729459
0.0160781532245	0.0909761439493	0.0010035819716
0.016924358411	0.0415024380977	0.00102247336265
0.0177705615354	0.016492380957	0.000640572411063
0.0186167624945	0.00894236383139	0.000350147683412
0.0194629611851	0.00625346451735	0.000392099956819
0.0203091575043	0.00680850756334	0.00042452401229
0.0211553513489	0.00799268485767	0.000331536240607
0.0220015426157	0.00917721064197	0.000348714789584
0.0228477312017	0.00978388341387	0.00041533719674
0.0236939170038	0.00927218585637	0.000333071248572
0.0245400999189	0.00859253601668	0.000302033286273
0.0253862798438	0.00572404939802	0.000276683900281
0.0262324566755	0.00424322503661	0.000205489422808
0.0270786303108	0.00346709539952	0.000236958942446
0.0279248006467	0.00191021718554	0.000179874473347
0.02877096758	0.00127123013229	0.000163655025075
0.0296171310077	0.000590369516593	8.89519331872e-05
0.0304632908267	0.000445177318484	9.94508329754e-05
0.0313094469337	0.000211939869999	7.56007698803e-05
0.0321555992258	0.000269479560197	6.05146886481e-05
0.0330017475999	0.000284744115604	6.99143001555e-05
0.0338478919527	0.000616845840262	7.21932045333e-05
0.0346940321814	0.000573894704037	8.15263298136e-05
0.0355401681826	0.000670474851292	6.89423808293e-05
0.0363862998534	0.000815228203731	7.15899719965e-05
0.0372324270906	0.000900023317493	7.34043060803e-05
0.0380785497912	0.000629151028235	5.58072380164e-05
0.038924667852	0.00070466345746	9.70183602048e-05
0.03977078117	0.000525161919737	7.71519886695e-05
0.040616889642	0.000463333811082	5.20556591356e-05
0.041462993165	0.000301041255739	4.93683077688e-05
0.0423090916358	0.000148918912882	3.71001732092e-05
0.0431551849514	0.000121483947228	3.82298758996e-05
0.0440012730087	3.9222343799e-05	2.63925089816e-05
0.0448473557045	3.7857855288e-05	1.98392415088e-05
0.0456934329358	5.03702727744e-05	2.17843869171e-05
0.0465395045996	7.30172241099e-05	2.13444809526e-05
0.0473855705926	0.000146793288012	4.01600557928e-05
0.0482316308118	0.000172525763987	3.83231409604e-05
0.0490776851542	0.000158917474789	3.22330962043e-05
0.0499237335166	0.000248022640912	4.58176073338e-05
0.0507697757959	0.000221105774197	4.0248051769e-05
0.0516158118891	0.000258056562096	2.9125075143e-05
0.0524618416931	0.000310256599014	4.92347234213e-05
0.0533501661057	0.000317862666202	3.93155978091e-05
0.054111581331	0.000293352898823	3.41871172627e-05
0.0550421926796	0.000136917420589	2.66443063275e-05
0.0558035959349	0.000181069823914	2.30425479791e-05
0.0567341924266	7.41697266998e-05	2.34293705408e-05
0.0574955833407	0.000123133177838	2.01271161974e-05
0.058426164522	0.000102655665114	1.58225177433e-05
0.059187542724	7.26950512653e-05	2.07936830012e-05
0.0601181081413	7.83398544518e-05	1.81113185203e-05
0.0608794732599	0.00010357762966	1.7356572935e-05
0.0617677249655	0.000125549852367	2.69910073268e-05
0.0626136712582	0.00020085958034	2.1074432909e-05
0.0634596099216	0.000207876257074	1.77287742648e-05
0.0643055408527	0.000330798206197	1.72891641817e-05
0.0651514639483	0.000318729769772	1.89920985478e-05
0.0659973791054	0.000370935511603	2.00016742378e-05
0.066843286221	0.000354283736146	2.02296646583e-05
0.0676891851919	0.000353948445498	1.69678864871e-05
0.068535075915	0.000335897971324	1.7674590415e-05
0.0693809582874	0.000322023329568	1.61494876584e-05
0.0702268322059	0.000274291023172	1.60058504326e-05
0.0710726975675	0.000282844430717	1.58297227731e-05
0.0719185542691	0.000184693328319	1.42310828436e-05
0.0727644022077	0.000172202160789	1.04387496897e-05
0.0736102412801	0.000149987597467	1.06516648422e-05
0.0744560713834	9.31510701582e-05	8.65900023889e-06
0.0753018924143	7.97742562073e-05	6.10167946508e-06
0.07614770427	5.63518672072e-05	8.18508827728e-06
0.0769935068473	4.8401211792e-05	6.36342841519e-06
0.0778393000432	4.59956201486e-05	5.85490399232e-06
0.0786850837546	4.63283588233e-05	8.21956287278e-06
0.0795308578785	4.14284446594e-05	5.77337834518e-06
0.0803766223118	5.49416910025e-05	6.89184173612e-06
0.0812223769514	4.8327420577e-05	6.16177473199e-06
0.0820681216944	7.19639203176e-05	7.1431432911e-06
0.0829138564375	5.58927056429e-05	6.4567198552e-06
0.0837595810779	4.44442052095e-05	5.78211651385e-06
0.0846052955124	4.93497800787e-05	5.91464757804e-06
0.0863389777623	2.46161503761e-05	4.19067054463e-06
0.0896793620261	1.98715058293e-05	3.60929278707e-06
0.093061855866	2.17673890873e-05	3.44310474544e-06
0.096444168277	2.17921040562e-05	2.98900424078e-06
0.0998262926652	1.6072575457e-05	2.56132446462e-06
0.103208222437	1.59198724677e-05	2.32735216447e-06
0.106589950999	2.12455281892e-05	2.47069556185e-06
0.109971471758	1.85888309236e-05	2.28661010919e-06
0.113352778123	1.98842484596e-05	2.30650301197e-06
0.1167338635	1.60693606474e-05	2.10968057374e-06
0.120114721299	1.9169308229e-05	2.13133344471e-06
0.123495344928	1.87267456922e-05	2.18958003493e-06
0.126875727796	1.36934950217e-05	1.89825599604e-06
0.147997255433	4.48889164421e-06	1.05765546635e-06
0.169107512505	4.04848012015e-06	8.1615795223e-07
