#Data reduced with Dominiques SARed v. 1.0
#wavelength: 5.1386
#q/A-1 	 Icorr/a.u. 	 sIcorr /a.u. 	Ispec/a.u. 	 sIspec/a.u. 	 Ibg/a.u. 	 sIbg/a.u. 	 2th/°
0.0	0.00269449320012	0.000240142875713	0.00313404758049	0.000198731842002	0.000439554380368	0.000134811927256	0.0
0.000384135926537	0.00916677113226	0.000558172537851	0.0107583132659	0.000368004687714	0.00159154213364	0.000419677414012	0.018
0.000768271843595	0.0126037873444	0.000739810591251	0.0149712592526	0.00043370849052	0.00236747190823	0.000599346857986	0.036
0.0011524077417	0.0104517358272	0.00063226521248	0.0124490926023	0.00039486129908	0.00199735677514	0.000493805481339	0.054
0.00153654361136	0.00889882113999	0.000454168434809	0.0100585163051	0.000353699931089	0.00115969516508	0.000284895289404	0.072
0.00192067944312	0.0121268118366	0.00042283966405	0.0127329606374	0.000396164924784	0.000606148800812	0.00014780640671	0.09
0.00230481522748	0.020991844854	0.000519073875412	0.0213542031079	0.000511612189501	0.000362358253889	8.76963835577e-05	0.108
0.00268895095498	0.0334698040178	0.000644055047247	0.0337275410887	0.00064153671724	0.000257737070826	5.68994228216e-05	0.126
0.00307308661613	0.0455449326091	0.00074808144997	0.0458113609711	0.000745775123654	0.000266428362014	5.86968544931e-05	0.144
0.00345722220145	0.0549008521469	0.000819026779779	0.0552077651195	0.000816438651611	0.000306912972627	6.50599273752e-05	0.162
0.00384135770147	0.0614347590081	0.000863809591063	0.0617603017462	0.000861154706702	0.000325542738162	6.7672599609e-05	0.18
0.0042254931067	0.067624040292	0.000903390555355	0.0679459756427	0.000900970148694	0.000321935350705	6.60854497316e-05	0.198
0.00460962840768	0.0745611821142	0.000946200500447	0.0748928473722	0.000943395890313	0.000331665258022	7.27982224037e-05	0.216
0.00499376359492	0.0801967805225	0.000978996199956	0.080572793191	0.000975622841714	0.000376012668503	8.12011715084e-05	0.234
0.00537789865894	0.084841819744	0.00100484518115	0.085267050792	0.00100052906222	0.00042523104794	9.30345834858e-05	0.252
0.00576203359027	0.0902285558625	0.00103388451116	0.0906998140473	0.00102879508332	0.000471258184894	0.000102459059871	0.27
0.00614616837943	0.0963039773093	0.00106412217451	0.096787549084	0.00105960295939	0.000483571774657	9.79671921528e-05	0.288
0.00653030301693	0.101644189717	0.00108927180501	0.102117755389	0.00108516401994	0.000473565672393	9.45098673121e-05	0.306
0.00691443749331	0.107435483063	0.00111651113614	0.107928898297	0.00111228636246	0.000493415234167	9.70369260206e-05	0.324
0.00729857179908	0.114153238627	0.00114740970368	0.114666721279	0.00114325758356	0.000513482651693	9.7525000604e-05	0.342
0.00768270592476	0.119654252618	0.00117271365003	0.120190036082	0.00116764681362	0.000535783463975	0.000108895470927	0.36
0.00806683986089	0.125484702212	0.00119760410617	0.125993717292	0.00119295879676	0.000509015080312	0.000105379810004	0.378
0.00845097359797	0.131606814693	0.00122293828307	0.132092406944	0.00121889880496	0.000485592251151	9.93164008188e-05	0.396
0.00883510712653	0.136765899659	0.00124334477823	0.137251680689	0.00123956241109	0.000485781030127	9.6908547437e-05	0.414
0.00921924043709	0.141073919601	0.00125930876222	0.141539612891	0.00125553763962	0.000465693289213	9.73847733652e-05	0.432
0.00960337352018	0.14460533106	0.00127218806334	0.145095457874	0.00126784796619	0.000490126813288	0.00010499525301	0.45
0.00998750636631	0.145998649634	0.00127539217308	0.146496026894	0.00127056010832	0.000497377259735	0.000110915311452	0.468
0.010371638966	0.141763311794	0.00125243233788	0.142209553939	0.00124840214695	0.00044624214553	0.000100393428329	0.486
0.0107557713098	0.133373460979	0.0012111648035	0.133804864093	0.00120743588561	0.000431403113811	9.4967170067e-05	0.504
0.0111399033882	0.12346534929	0.00116283044246	0.1239302558	0.0011585931091	0.000464906510352	9.91798641537e-05	0.522
0.0115240351917	0.112274983168	0.00110506870926	0.112683542304	0.0011017239785	0.000408559136055	8.59134878181e-05	0.54
0.0119081667109	0.101429314397	0.00104769284755	0.101812215576	0.00104472567562	0.000382901179239	7.87944509254e-05	0.558
0.0122922979363	0.0907351575249	0.000989486099139	0.0911228752724	0.00098635479273	0.000387717747452	7.86572517206e-05	0.576
0.0126764288584	0.0798250997387	0.000926578912036	0.0801754063831	0.000923350814013	0.000350306644403	7.72771278683e-05	0.594
0.0130605594677	0.0689817545221	0.000859845312838	0.0693035540499	0.000856435263271	0.000321799527821	7.65022995436e-05	0.612
0.0134446897547	0.0582231817352	0.000787093036664	0.0584898311895	0.000784712685486	0.00026664945432	6.11673900288e-05	0.63
0.01382881971	0.0488848410517	0.000719985301648	0.0491460277715	0.000717328847512	0.000261186719751	6.17912543633e-05	0.648
0.0142129493241	0.0401078297195	0.00065017672995	0.0403531507137	0.000648088931132	0.000245320994253	5.20626306753e-05	0.666
0.0145970785875	0.0312772756187	0.000572996928894	0.031501242242	0.000571060795842	0.000223966623323	4.70642961715e-05	0.684
0.0149812074907	0.0244457997039	0.000506224117407	0.0246632430411	0.000504171890322	0.000217443337192	4.55363816437e-05	0.702
0.0153653360243	0.0195205442352	0.000451310723803	0.0197003276383	0.000449697236801	0.000179783403107	3.8128265546e-05	0.72
0.0157494641788	0.0155351985242	0.000402129162424	0.0156980636465	0.000400619255244	0.000162865122294	3.48148761261e-05	0.738
0.0161335919446	0.0120307654892	0.000354740476141	0.0122037945022	0.000352475188641	0.000173029012986	4.00255768925e-05	0.756
0.0165177193124	0.00882769721094	0.000304623882122	0.00899065404563	0.000301881093567	0.000162956834696	4.07862097463e-05	0.774
0.0169018462726	0.00630612213782	0.000256384241291	0.00642941102027	0.000254733665905	0.000123288882452	2.90454581116e-05	0.792
0.0172859728158	0.00468886968576	0.000219992221916	0.00477458358168	0.000219071654194	8.57138959212e-05	2.0104428178e-05	0.81
0.0176700989325	0.00375122689935	0.000196530721648	0.00382612570767	0.000195748085634	7.48988083224e-05	1.75217442686e-05	0.828
0.0180542246132	0.00287140631589	0.000172011137016	0.00293698869535	0.000171203996373	6.55823794644e-05	1.66440044354e-05	0.846
0.0184383498484	0.00238649234827	0.000156805937969	0.00244820109049	0.000156027805646	6.17087422153e-05	1.56021167746e-05	0.864
0.0188224746286	0.00237851951345	0.00015619466633	0.00244283402415	0.000155485018965	6.43145107024e-05	1.48722112476e-05	0.882
0.0192065989445	0.00237718594441	0.000155568392673	0.00243526502604	0.00015477691659	5.80790816304e-05	1.56726159196e-05	0.9
0.0195907227864	0.00239876210485	0.000155247493901	0.00244640677603	0.000154666201102	4.76446711791e-05	1.34220191998e-05	0.918
0.0199748461449	0.00260019858369	0.00016088987019	0.00264922082254	0.00016044831129	4.90222388504e-05	1.19117477181e-05	0.936
0.0203589690106	0.00297524195762	0.00017192797222	0.00303212002622	0.000171165546715	5.68780686064e-05	1.61735354628e-05	0.954
0.020743091374	0.00320313139518	0.000177090162579	0.0032428375901	0.000176669367241	3.97061949226e-05	1.22008344435e-05	0.972
0.0211272132255	0.00318280343295	0.000175421091604	0.00320723572892	0.000175271333785	2.44322959734e-05	7.24699473307e-06	0.99
0.0215113345557	0.00327332985195	0.000177271202157	0.00329499300992	0.00017713557156	2.16631579742e-05	6.93313797648e-06	1.008
0.0218954553552	0.00341888359637	0.000181017702225	0.00345035156265	0.00018077752376	3.14679662803e-05	9.32177139458e-06	1.026
0.0222795756144	0.00344536987797	0.000181502211576	0.00348110323191	0.000181185221425	3.57333539391e-05	1.07223292253e-05	1.044
0.0226636953239	0.00337622104702	0.000178956837109	0.00340091593427	0.000178755677794	2.46948872509e-05	8.48275924048e-06	1.062
0.0230478144742	0.00339081464979	0.00017886700876	0.00341015412003	0.00017866191786	1.9339470232e-05	8.56305609219e-06	1.08
0.0234319330558	0.00336899821931	0.000177778761705	0.00338625455539	0.000177666121848	1.72563360887e-05	6.32750035964e-06	1.098
0.0238160510593	0.00320150347911	0.000172956090146	0.00321672584598	0.000172810836011	1.52223668682e-05	7.08689463345e-06	1.116
0.0242001684751	0.00304896547048	0.000168350981699	0.0030614587882	0.000168260541699	1.24933177222e-05	5.51753081001e-06	1.134
0.0245842852938	0.00289113382313	0.000163596611377	0.00290327981517	0.000163517693953	1.2145992044e-05	5.08084818062e-06	1.152
0.0249684015059	0.00257891423831	0.000154315016994	0.00259303245171	0.000154207624755	1.41182134031e-05	5.75612172357e-06	1.17
0.0253525171019	0.00220386402327	0.000142683090228	0.00222367927553	0.000142513076041	1.98152522552e-05	6.96328903243e-06	1.188
0.0257366320724	0.00196001290996	0.000134933905012	0.0019911210865	0.000134609735677	3.11081765404e-05	9.34760840557e-06	1.206
0.0261207464079	0.00174285602294	0.000126961159741	0.00177061763972	0.000126685488815	2.77616167823e-05	8.36199774692e-06	1.224
0.0265048600988	0.00144904632993	0.000115449823046	0.00146929626896	0.000115184313996	2.02499390339e-05	7.82530833342e-06	1.242
0.0268889731358	0.00120976248321	0.000105294952532	0.00122798341953	0.000105105389182	1.8220936323e-05	6.31539337579e-06	1.26
0.0272730855093	0.00102557297578	9.68163500307e-05	0.00104254606363	9.66232678603e-05	1.69730878485e-05	6.11144346939e-06	1.278
0.0276571972099	0.000828429745696	8.73070444748e-05	0.000850405980118	8.70541699056e-05	2.19762344223e-05	6.64014434862e-06	1.296
0.028041308228	0.000704878293454	8.0524003038e-05	0.000726108893093	8.02532933294e-05	2.12305996395e-05	6.59727027273e-06	1.314
0.0284254185543	0.000615853104323	7.46784687734e-05	0.000628959400942	7.45145704953e-05	1.31062966196e-05	4.94494512027e-06	1.332
0.0288095281792	0.00051622201969	6.79832175756e-05	0.000523869935092	6.78889656736e-05	7.64791540291e-06	3.57857677117e-06	1.35
0.0291936370933	0.000465117427902	6.47713505838e-05	0.000475901346853	6.46121053013e-05	1.07839189504e-05	4.53913042131e-06	1.368
0.029577745287	0.000409001504026	6.08248726631e-05	0.000421047911059	6.05983365613e-05	1.2046407033e-05	5.24468688114e-06	1.386
0.0299618527509	0.000341854915935	5.58508196973e-05	0.000354909499635	5.54714349737e-05	1.30545836995e-05	6.49876625311e-06	1.404
0.0303459594756	0.000341464083556	5.53159539612e-05	0.000351111151759	5.50388711818e-05	9.6470682029e-06	5.52968549458e-06	1.422
0.0307300654515	0.000323093774809	5.35697766153e-05	0.000332196860224	5.34315290945e-05	9.10308541467e-06	3.84612340407e-06	1.44
0.0311141706692	0.000343127494168	5.5334639023e-05	0.000354829959571	5.51336772403e-05	1.17024654031e-05	4.7116780203e-06	1.458
0.0314982751191	0.000399153082628	5.94582535272e-05	0.000412350375799	5.92669204749e-05	1.31972931712e-05	4.76613574359e-06	1.476
0.0318823787919	0.000421397832965	6.11559434732e-05	0.000437339009726	6.08742491027e-05	1.59411767612e-05	5.86303831518e-06	1.494
0.032266481678	0.000438306528646	6.15629400159e-05	0.000446662448859	6.14137264867e-05	8.35592021326e-06	4.28366460143e-06	1.512
0.0326505837679	0.000449644796397	6.17215396017e-05	0.000452106834944	6.17068606828e-05	2.46203854708e-06	1.34602952398e-06	1.53
0.0330346850522	0.000486665664501	6.453130532e-05	0.000494418260472	6.44135858515e-05	7.75259597102e-06	3.89606520212e-06	1.548
0.0334187855215	0.000655274078606	7.46119249435e-05	0.000664191114173	7.45123687919e-05	8.9170355673e-06	3.85308198618e-06	1.566
0.0338028851661	0.000726700069883	7.84922401234e-05	0.000737337727059	7.83677597635e-05	1.06376571758e-05	4.41882215483e-06	1.584
0.0341869839767	0.000725258821429	7.89463067336e-05	0.000742715071784	7.85211592323e-05	1.7456250355e-05	8.18210851066e-06	1.602
0.0345710819438	0.000821082834231	8.3209850004e-05	0.000832472320468	8.29751714471e-05	1.13894862368e-05	6.24500288347e-06	1.62
0.0349551790579	0.000843568324272	8.3717434513e-05	0.000848937617291	8.3627232775e-05	5.36929301947e-06	3.88520010198e-06	1.638
0.0353392753095	0.000881040026533	8.52495397522e-05	0.000885493520378	8.52100811202e-05	4.45349384503e-06	2.59347323897e-06	1.656
0.0357233706891	0.000916644725362	8.68374831386e-05	0.000922677426717	8.67728331908e-05	6.03270135427e-06	3.35020863353e-06	1.674
0.0361074651873	0.000903411401725	8.65504231701e-05	0.000917643530674	8.63428530605e-05	1.42321289493e-05	5.9906156856e-06	1.692
0.0364915587945	0.000878759509143	8.53493668023e-05	0.00089357000721	8.50440563027e-05	1.48104980676e-05	7.21269028453e-06	1.71
0.0368756515014	0.00083447681436	8.32232197231e-05	0.000852856601637	8.29387752733e-05	1.83797872768e-05	6.87487143422e-06	1.728
0.0372597432984	0.000743909313747	7.92346491865e-05	0.000772037130562	7.87757424551e-05	2.8127816815e-05	8.51539971827e-06	1.746
0.0376438341761	0.000664143911101	7.4874938518e-05	0.000692272551548	7.44563502932e-05	2.81286404464e-05	7.90622027832e-06	1.764
0.0380279241249	0.000675045285303	7.49063164997e-05	0.000697574833051	7.46133607314e-05	2.25295477483e-05	6.6183571928e-06	1.782
0.0384120131354	0.000624659758704	7.13571467897e-05	0.000637745318043	7.12068530819e-05	1.3085559339e-05	4.62887374326e-06	1.8
0.0387961011982	0.00049173141548	6.28663202425e-05	0.000497968674733	6.27940341736e-05	6.2372592528e-06	3.01388338124e-06	1.818
0.0391801883037	0.000426882475472	5.86678397017e-05	0.000434414444965	5.85595698402e-05	7.53196949269e-06	3.56261075532e-06	1.836
0.0395642744424	0.000370974218287	5.52444925502e-05	0.000383763851202	5.49666517701e-05	1.27896329151e-05	5.53363807263e-06	1.854
0.039948359605	0.000293866057308	4.98434739632e-05	0.000311375884046	4.94419263754e-05	1.75098267381e-05	6.3140963728e-06	1.872
0.0403324437819	0.000257883976735	4.62920642169e-05	0.000270985063455	4.60377842369e-05	1.31010867203e-05	4.84537222694e-06	1.89
0.0407165269636	0.000215238474844	4.19971456506e-05	0.000224871927159	4.18186734976e-05	9.63345231428e-06	3.86765945976e-06	1.908
0.0411006091406	0.000159565385346	3.6435978959e-05	0.00016942006358	3.62129887142e-05	9.85467823334e-06	4.02492373635e-06	1.926
0.0414846903036	0.000138232778462	3.45483071804e-05	0.000151143444515	3.41253777826e-05	1.2910666053e-05	5.38925971044e-06	1.944
0.0418687704429	0.000106438606097	3.07477307617e-05	0.000119270123022	3.029229304e-05	1.28315169248e-05	5.2725638332e-06	1.962
0.0422528495492	7.19784128024e-05	2.50315534772e-05	8.01127446091e-05	2.47897832546e-05	8.13433180673e-06	3.4706362061e-06	1.98
0.0426369276129	5.95690906506e-05	2.39531919443e-05	7.23520708766e-05	2.35169713914e-05	1.27829802259e-05	4.55054512044e-06	1.998
0.0430210046247	6.37449224248e-05	2.62448885579e-05	8.51710357723e-05	2.54429456083e-05	2.14261133475e-05	6.4382213529e-06	2.016
0.0434050805749	8.79156558596e-05	2.99457295801e-05	0.000110801028912	2.89694759595e-05	2.28853730522e-05	7.58394242562e-06	2.034
0.0437891554541	0.000122219062375	3.26585631775e-05	0.000137996454155	3.22540596073e-05	1.57773917801e-05	5.12419629478e-06	2.052
0.0441732292529	0.000135876767917	3.36227241554e-05	0.000147293732107	3.3245697026e-05	1.14169641895e-05	5.02107646697e-06	2.07
0.0445573019617	0.000159713175371	3.56225463856e-05	0.000168089562264	3.54340726087e-05	8.37638689256e-06	3.6595504307e-06	2.088
0.0449413735712	0.00020722788536	4.07778388586e-05	0.000220755637357	4.05289595998e-05	1.3527751997e-05	4.49839701825e-06	2.106
0.0453254440717	0.000200455309356	4.05326717865e-05	0.000217266649317	4.01778326388e-05	1.68113399609e-05	5.35156487409e-06	2.124
0.0457095134539	0.000254612008997	4.43236871877e-05	0.000263541142297	4.41914302124e-05	8.92913329998e-06	3.42151161019e-06	2.142
0.0460935817083	0.000362176371521	5.22834023762e-05	0.000368910018039	5.21982679387e-05	6.73364651815e-06	2.98244668438e-06	2.16
0.0464776488253	0.000402710893524	5.53474614621e-05	0.000413747014961	5.51841206601e-05	1.10361214367e-05	4.24903721726e-06	2.178
0.0468617147956	0.000438837094756	5.78788549909e-05	0.000452695957947	5.76135146532e-05	1.38588631912e-05	5.53577315011e-06	2.196
0.0472457796096	0.000467729703434	5.95544236535e-05	0.00048188357819	5.92995327985e-05	1.4153874756e-05	5.50407000143e-06	2.214
0.0476298432578	0.000475648872666	5.98107296727e-05	0.000488447831215	5.95692641876e-05	1.27989585487e-05	5.36899880076e-06	2.232
0.0480139057309	0.00052157718033	6.20937172507e-05	0.000530661218699	6.19795613554e-05	9.08403836934e-06	3.76346864036e-06	2.25
0.0483979670192	0.000527575178516	6.25206189119e-05	0.000539463885775	6.23903874403e-05	1.18887072587e-05	4.03327958034e-06	2.268
0.0487820271134	0.000523279483345	6.24391248982e-05	0.00053833595401	6.22366871384e-05	1.50564706643e-05	5.02385231508e-06	2.286
0.0491660860039	0.000566985147785	6.46939305557e-05	0.00058082024972	6.45670010488e-05	1.38351019354e-05	4.05055876484e-06	2.304
0.0495501436813	0.000523406930348	6.26779789053e-05	0.00054306072105	6.23969873498e-05	1.96537907026e-05	5.92832263896e-06	2.322
0.049934200136	0.000502137674931	6.10214320042e-05	0.000516730628847	6.08174053073e-05	1.45929539163e-05	4.9858174394e-06	2.34
0.0503182553588	0.000585670248622	6.48572278268e-05	0.000589197580778	6.48092147094e-05	3.52733215609e-06	2.49513328849e-06	2.358
0.0507023093399	0.000550810840571	6.26128569658e-05	0.000552307575021	6.25986061241e-05	1.49673444929e-06	1.33580265861e-06	2.376
0.05108636207	0.000428553198903	5.53542141901e-05	0.000432708456905	5.53006863276e-05	4.15525800221e-06	2.43374614611e-06	2.394
0.0514704135397	0.000333945516125	4.9410901172e-05	0.000344556059347	4.92561476759e-05	1.06105432223e-05	3.9075658347e-06	2.412
0.0518544637393	0.000282079405129	4.59051210676e-05	0.000296913754442	4.56452102279e-05	1.48343493128e-05	4.87800404644e-06	2.43
0.0522385126595	0.000277662331638	4.53079246519e-05	0.000290733686658	4.51027720837e-05	1.30713550192e-05	4.30673735358e-06	2.448
0.0526225602907	0.000305485684393	4.70981094754e-05	0.000316524005961	4.69531783978e-05	1.10383215685e-05	3.69201225612e-06	2.466
0.0530066066236	0.000287608859452	4.57360234963e-05	0.000299043532578	4.5533133836e-05	1.14346731258e-05	4.30320442529e-06	2.484
0.0533906516485	0.000234119654476	4.10643073106e-05	0.000242567081734	4.09469205953e-05	8.44742725826e-06	3.10274534362e-06	2.502
0.0537746953561	0.000197222865293	3.80876444307e-05	0.000207812416669	3.78598161687e-05	1.0589551376e-05	4.15968483841e-06	2.52
0.0541587377369	0.000149427279701	3.38558502844e-05	0.000162897910497	3.34871972168e-05	1.34706307962e-05	4.98259179976e-06	2.538
0.0545427787813	0.000120205533513	3.03954237755e-05	0.000132125481855	3.01263598321e-05	1.19199483424e-05	4.03537231941e-06	2.556
0.05492681848	0.000117453885083	2.98770209352e-05	0.000127785906177	2.95989870232e-05	1.03320210936e-05	4.06649076742e-06	2.574
0.0553108568234	0.000126478019181	3.02092024442e-05	0.00013241461004	3.00886961675e-05	5.93659085948e-06	2.6956029482e-06	2.592
0.055694893802	0.000137059850046	3.13661230465e-05	0.000143066346434	3.12040383608e-05	6.00649638847e-06	3.18459808283e-06	2.61
0.0560789294064	0.000150355980518	3.40402798145e-05	0.000166801994714	3.36300712288e-05	1.6446014196e-05	5.26867715826e-06	2.628
0.0564629636272	0.000165162713653	3.57425755802e-05	0.00018432426526	3.53209233696e-05	1.9161551607e-05	5.47394569065e-06	2.646
0.0568469964547	0.000199830588755	3.83254180795e-05	0.000214196462103	3.80219237662e-05	1.4365873348e-05	4.81362483855e-06	2.664
0.0572310278797	0.000249586376388	4.18092914267e-05	0.000258142731936	4.16794624911e-05	8.55635554765e-06	3.2923025464e-06	2.682
0.0576150578925	0.000316020882985	4.65400326699e-05	0.000321651118359	4.64494222682e-05	5.63023537464e-06	2.90272490368e-06	2.7
0.0579990864837	0.000337651134379	4.82249065638e-05	0.000346113786158	4.81166494938e-05	8.46265177907e-06	3.22949757266e-06	2.718
0.0583831136438	0.00034896736822	4.89253822851e-05	0.000357044311696	4.87991250197e-05	8.0769434755e-06	3.5126100069e-06	2.736
0.0587671393634	0.00039245584042	5.17056947701e-05	0.000400904316847	5.16059960275e-05	8.44847642658e-06	3.20936842275e-06	2.754
0.059151163633	0.000442707377179	5.49443040799e-05	0.000453211181231	5.4772314736e-05	1.05038040523e-05	4.34397160349e-06	2.772
0.0595351864431	0.000525787339334	5.95898642025e-05	0.000535080464521	5.94363304127e-05	9.29312518709e-06	4.27487341791e-06	2.79
