 5.01300001144409E+0000  5336
 5.03900001198053E+0000  5271
 5.06500001251698E+0000  5264
 5.09100001305342E+0000  5152
 5.11700001358986E+0000  5101
 5.14300001412630E+0000  5185
 5.16900001466274E+0000  5101
 5.19500001519918E+0000  5130
 5.22100001573563E+0000  5076
 5.24700001627207E+0000  5107
 5.27300001680851E+0000  5104
 5.29900001734495E+0000  5082
 5.32500001788139E+0000  5086
 5.35100001841784E+0000  5042
 5.37700001895428E+0000  4999
 5.40300001949072E+0000  5016
 5.42900002002716E+0000  4929
 5.45500002056360E+0000  5026
 5.48100002110004E+0000  4961
 5.50700002163649E+0000  4991
 5.53300002217293E+0000  5058
 5.55900002270937E+0000  4994
 5.58500002324581E+0000  4969
 5.61100002378225E+0000  4815
 5.63700002431870E+0000  4840
 5.66300002485514E+0000  4818
 5.68900002539158E+0000  4781
 5.71500002592802E+0000  4794
 5.74100002646446E+0000  4759
 5.76700002700090E+0000  4820
 5.79300002753735E+0000  4767
 5.81900002807379E+0000  4663
 5.84500002861023E+0000  4645
 5.87100002914667E+0000  4754
 5.89700002968311E+0000  4897
 5.92300003021955E+0000  4765
 5.94900003075600E+0000  4609
 5.97500003129244E+0000  4642
 6.00100003182888E+0000  4671
 6.02700003236532E+0000  4677
 6.05300003290176E+0000  4696
 6.07900003343821E+0000  4632
 6.10500003397465E+0000  4616
 6.13100003451109E+0000  4566
 6.15700003504753E+0000  4541
 6.18300003558397E+0000  4542
 6.20900003612041E+0000  4546
 6.23500003665686E+0000  4535
 6.26100003719330E+0000  4482
 6.28700003772974E+0000  4456
 6.31300003826618E+0000  4520
 6.33900003880262E+0000  4529
 6.36500003933907E+0000  4555
 6.39100003987551E+0000  4579
 6.41700004041195E+0000  4486
 6.44300004094839E+0000  4441
 6.46900004148483E+0000  4464
 6.49500004202127E+0000  4503
 6.52100004255772E+0000  4433
 6.54700004309416E+0000  4322
 6.57300004363060E+0000  4241
 6.59900004416704E+0000  4293
 6.62500004470348E+0000  4436
 6.65100004523993E+0000  4439
 6.67700004577637E+0000  4377
 6.70300004631281E+0000  4313
 6.72900004684925E+0000  4371
 6.75500004738569E+0000  4362
 6.78100004792213E+0000  4311
 6.80700004845858E+0000  4202
 6.83300004899502E+0000  4254
 6.85900004953146E+0000  4261
 6.88500005006790E+0000  4275
 6.91100005060434E+0000  4198
 6.93700005114079E+0000  4094
 6.96300005167723E+0000  4026
 6.98900005221367E+0000  4115
 7.01500005275011E+0000  4173
 7.04100005328655E+0000  4201
 7.06700005382299E+0000  4112
 7.09300005435944E+0000  4024
 7.11900005489588E+0000  4152
 7.14500005543232E+0000  4196
 7.17100005596876E+0000  4148
 7.19700005650520E+0000  4119
 7.22300005704165E+0000  4095
 7.24900005757809E+0000  4038
 7.27500005811453E+0000  4036
 7.30100005865097E+0000  4046
 7.32700005918741E+0000  4046
 7.35300005972385E+0000  4028
 7.37900006026030E+0000  4048
 7.40500006079674E+0000  3979
 7.43100006133318E+0000  3972
 7.45700006186962E+0000  3876
 7.48300006240606E+0000  3927
 7.50900006294250E+0000  3954
 7.53500006347895E+0000  3918
 7.56100006401539E+0000  3856
 7.58700006455183E+0000  3952
 7.61300006508827E+0000  3901
 7.63900006562471E+0000  3898
 7.66500006616116E+0000  4024
 7.69100006669760E+0000  3978
 7.71700006723404E+0000  3904
 7.74300006777048E+0000  3947
 7.76900006830692E+0000  3905
 7.79500006884336E+0000  3823
 7.82100006937981E+0000  3888
 7.84700006991625E+0000  3788
 7.87300007045269E+0000  3874
 7.89900007098913E+0000  3837
 7.92500007152557E+0000  3949
 7.95100007206202E+0000  3735
 7.97700007259846E+0000  3807
 8.00300007313490E+0000  3799
 8.02900007367134E+0000  3751
 8.05500007420778E+0000  3635
 8.08100007474422E+0000  3704
 8.10700007528067E+0000  3683
 8.13300007581711E+0000  3624
 8.15900007635355E+0000  3658
 8.18500007688999E+0000  3634
 8.21100007742643E+0000  3732
 8.23700007796288E+0000  3660
 8.26300007849932E+0000  3705
 8.28900007903576E+0000  3691
 8.31500007957220E+0000  3636
 8.34100008010864E+0000  3585
 8.36700008064508E+0000  3614
 8.39300008118153E+0000  3660
 8.41900008171797E+0000  3674
 8.44500008225441E+0000  3631
 8.47100008279085E+0000  3529
 8.49700008332729E+0000  3601
 8.52300008386374E+0000  3638
 8.54900008440018E+0000  3657
 8.57500008493662E+0000  3660
 8.60100008547306E+0000  3620
 8.62700008600950E+0000  3664
 8.65300008654594E+0000  3608
 8.67900008708239E+0000  3541
 8.70500008761883E+0000  3531
 8.73100008815527E+0000  3498
 8.75700008869171E+0000  3577
 8.78300008922815E+0000  3610
 8.80900008976460E+0000  3557
 8.83500009030104E+0000  3457
 8.86100009083748E+0000  3526
 8.88700009137392E+0000  3580
 8.91300009191036E+0000  3526
 8.93900009244680E+0000  3497
 8.96500009298325E+0000  3506
 8.99100009351969E+0000  3507
 9.01700009405613E+0000  3478
 9.04300009459257E+0000  3482
 9.06900009512901E+0000  3464
 9.09500009566545E+0000  3453
 9.12100009620190E+0000  3458
 9.14700009673834E+0000  3472
 9.17300009727478E+0000  3421
 9.19900009781122E+0000  3376
 9.22500009834766E+0000  3405
 9.25100009888411E+0000  3484
 9.27700009942055E+0000  3463
 9.30300009995699E+0000  3377
 9.32900010049343E+0000  3393
 9.35500010102987E+0000  3332
 9.38100010156631E+0000  3366
 9.40700010210276E+0000  3344
 9.43300010263920E+0000  3492
 9.45900010317564E+0000  3605
 9.48500010371208E+0000  3555
 9.51100010424852E+0000  3439
 9.53700010478497E+0000  3313
 9.56300010532141E+0000  3292
 9.58900010585785E+0000  3281
 9.61500010639429E+0000  3294
 9.64100010693073E+0000  3294
 9.66700010746717E+0000  3249
 9.69300010800362E+0000  3201
 9.71900010854006E+0000  3252
 9.74500010907650E+0000  3255
 9.77100010961294E+0000  3424
 9.79700011014938E+0000  3216
 9.82300011068583E+0000  3260
 9.84900011122227E+0000  3264
 9.87500011175871E+0000  3284
 9.90100011229515E+0000  3334
 9.92700011283159E+0000  3200
 9.95300011336803E+0000  3222
 9.97900011390448E+0000  3193
 1.00050001144409E+0001  3331
 1.00310001149773E+0001  3084
 1.00570001155138E+0001  3230
 1.00830001160502E+0001  3176
 1.01090001165866E+0001  3241
 1.01350001171231E+0001  3230
 1.01610001176595E+0001  3210
 1.01870001181960E+0001  3163
 1.02130001187324E+0001  3196
 1.02390001192688E+0001  3167
 1.02650001198053E+0001  3237
 1.02910001203417E+0001  3125
 1.03170001208782E+0001  3188
 1.03430001214146E+0001  3139
 1.03690001219511E+0001  3116
 1.03950001224875E+0001  3037
 1.04210001230239E+0001  3085
 1.04470001235604E+0001  3252
 1.04730001240968E+0001  3074
 1.04990001246333E+0001  3161
 1.05250001251697E+0001  3148
 1.05510001257062E+0001  3080
 1.05770001262426E+0001  3137
 1.06030001267790E+0001  3192
 1.06290001273155E+0001  3097
 1.06550001278519E+0001  3155
 1.06810001283884E+0001  3061
 1.07070001289248E+0001  3039
 1.07330001294612E+0001  3196
 1.07590001299977E+0001  3191
 1.07850001305341E+0001  3189
 1.08110001310706E+0001  3215
 1.08370001316070E+0001  3199
 1.08630001321435E+0001  3091
 1.08890001326799E+0001  3093
 1.09150001332163E+0001  3106
 1.09410001337528E+0001  3097
 1.09670001342892E+0001  3052
 1.09930001348257E+0001  3099
 1.10190001353621E+0001  3131
 1.10450001358985E+0001  3160
 1.10710001364350E+0001  3150
 1.10970001369714E+0001  3212
 1.11230001375079E+0001  3186
 1.11490001380443E+0001  3173
 1.11750001385808E+0001  3136
 1.12010001391172E+0001  3048
 1.12270001396536E+0001  3063
 1.12530001401901E+0001  3070
 1.12790001407265E+0001  3056
 1.13050001412630E+0001  3111
 1.13310001417994E+0001  3124
 1.13570001423358E+0001  3084
 1.13830001428723E+0001  3106
 1.14090001434087E+0001  3154
 1.14350001439452E+0001  3099
 1.14610001444816E+0001  3058
 1.14870001450181E+0001  3112
 1.15130001455545E+0001  3151
 1.15390001460909E+0001  3143
 1.15650001466274E+0001  3149
 1.15910001471638E+0001  3142
 1.16170001477003E+0001  3085
 1.16430001482367E+0001  3074
 1.16690001487731E+0001  3090
 1.16950001493096E+0001  3100
 1.17210001498460E+0001  3152
 1.17470001503825E+0001  3174
 1.17730001509189E+0001  3147
 1.17990001514554E+0001  3154
 1.18250001519918E+0001  3147
 1.18510001525282E+0001  3110
 1.18770001530647E+0001  3110
 1.19030001536011E+0001  3108
 1.19290001541376E+0001  3102
 1.19550001546740E+0001  3031
 1.19810001552105E+0001  3071
 1.20070001557469E+0001  3092
 1.20330001562833E+0001  3049
 1.20590001568198E+0001  3089
 1.20850001573562E+0001  3078
 1.21110001578927E+0001  3135
 1.21370001584291E+0001  3130
 1.21630001589655E+0001  3067
 1.21890001595020E+0001  3094
 1.22150001600384E+0001  3077
 1.22410001605749E+0001  3120
 1.22670001611113E+0001  3100
 1.22930001616478E+0001  3083
 1.23190001621842E+0001  3078
 1.23450001627206E+0001  3072
 1.23710001632571E+0001  3080
 1.23970001637935E+0001  3129
 1.24230001643300E+0001  3039
 1.24490001648664E+0001  3064
 1.24750001654028E+0001  3060
 1.25010001659393E+0001  3155
 1.25270001664757E+0001  2937
 1.25530001670122E+0001  3033
 1.25790001675486E+0001  3010
 1.26050001680851E+0001  3048
 1.26310001686215E+0001  3027
 1.26570001691579E+0001  3114
 1.26830001696944E+0001  2904
 1.27090001702308E+0001  3028
 1.27350001707673E+0001  3048
 1.27610001713037E+0001  3084
 1.27870001718401E+0001  2990
 1.28130001723766E+0001  3118
 1.28390001729130E+0001  2962
 1.28650001734495E+0001  3073
 1.28910001739859E+0001  3045
 1.29170001745224E+0001  3016
 1.29430001750588E+0001  3029
 1.29690001755952E+0001  3112
 1.29950001761317E+0001  3025
 1.30210001766681E+0001  3037
 1.30470001772046E+0001  3123
 1.30730001777410E+0001  3020
 1.30990001782774E+0001  2991
 1.31250001788139E+0001  3038
 1.31510001793503E+0001  3065
 1.31770001798868E+0001  3037
 1.32030001804232E+0001  3027
 1.32290001809597E+0001  3012
 1.32550001814961E+0001  2938
 1.32810001820325E+0001  3053
 1.33070001825690E+0001  3093
 1.33330001831054E+0001  3098
 1.33590001836419E+0001  3082
 1.33850001841783E+0001  3072
 1.34110001847147E+0001  2999
 1.34370001852512E+0001  3107
 1.34630001857876E+0001  3189
 1.34890001863241E+0001  3075
 1.35150001868605E+0001  3083
 1.35410001873970E+0001  3085
 1.35670001879334E+0001  3031
 1.35930001884698E+0001  3001
 1.36190001890063E+0001  3029
 1.36450001895427E+0001  3019
 1.36710001900792E+0001  3050
 1.36970001906156E+0001  2945
 1.37230001911521E+0001  2989
 1.37490001916885E+0001  3044
 1.37750001922249E+0001  3091
 1.38010001927614E+0001  3050
 1.38270001932978E+0001  2958
 1.38530001938343E+0001  2997
 1.38790001943707E+0001  3128
 1.39050001949071E+0001  3067
 1.39310001954436E+0001  2981
 1.39570001959800E+0001  3051
 1.39830001965165E+0001  3060
 1.40090001970529E+0001  3049
 1.40350001975894E+0001  3077
 1.40610001981258E+0001  3056
 1.40870001986622E+0001  2979
 1.41130001991987E+0001  2972
 1.41390001997351E+0001  3002
 1.41650002002716E+0001  3030
 1.41910002008080E+0001  3025
 1.42170002013444E+0001  2963
 1.42430002018809E+0001  2960
 1.42690002024173E+0001  2969
 1.42950002029538E+0001  2926
 1.43210002034902E+0001  2942
 1.43470002040267E+0001  2969
 1.43730002045631E+0001  2922
 1.43990002050995E+0001  2918
 1.44250002056360E+0001  2954
 1.44510002061724E+0001  2959
 1.44770002067089E+0001  2974
 1.45030002072453E+0001  3007
 1.45290002077817E+0001  2960
 1.45550002083182E+0001  3025
 1.45810002088546E+0001  3046
 1.46070002093911E+0001  2987
 1.46330002099275E+0001  2904
 1.46590002104640E+0001  2884
 1.46850002110004E+0001  2941
 1.47110002115368E+0001  2918
 1.47370002120733E+0001  2966
 1.47630002126097E+0001  2917
 1.47890002131462E+0001  2850
 1.48150002136826E+0001  2888
 1.48410002142190E+0001  2978
 1.48670002147555E+0001  2903
 1.48930002152919E+0001  2824
 1.49190002158284E+0001  2851
 1.49450002163648E+0001  2855
 1.49710002169013E+0001  2922
 1.49970002174377E+0001  2899
 1.50230002179741E+0001  2829
 1.50490002185106E+0001  2821
 1.50750002190470E+0001  2926
 1.51010002195835E+0001  2899
 1.51270002201199E+0001  2833
 1.51530002206563E+0001  2817
 1.51790002211928E+0001  2878
 1.52050002217292E+0001  2852
 1.52310002222657E+0001  2796
 1.52570002228021E+0001  2894
 1.52830002233386E+0001  2907
 1.53090002238750E+0001  2907
 1.53350002244114E+0001  2949
 1.53610002249479E+0001  2889
 1.53870002254843E+0001  2883
 1.54130002260208E+0001  2803
 1.54390002265572E+0001  2831
 1.54650002270937E+0001  2893
 1.54910002276301E+0001  2925
 1.55170002281665E+0001  2902
 1.55430002287030E+0001  2959
 1.55690002292394E+0001  2915
 1.55950002297759E+0001  2836
 1.56210002303123E+0001  2889
 1.56470002308487E+0001  2828
 1.56730002313852E+0001  2960
 1.56990002319216E+0001  2965
 1.57250002324581E+0001  2908
 1.57510002329945E+0001  2946
 1.57770002335310E+0001  2939
 1.58030002340674E+0001  2920
 1.58290002346038E+0001  2872
 1.58550002351403E+0001  2920
 1.58810002356767E+0001  3007
 1.59070002362132E+0001  2985
 1.59330002367496E+0001  2947
 1.59590002372860E+0001  2902
 1.59850002378225E+0001  2865
 1.60110002383590E+0001  2905
 1.60370002388954E+0001  2924
 1.60630002394319E+0001  2921
 1.60890002399683E+0001  2969
 1.61150002405047E+0001  2905
 1.61410002410412E+0001  2961
 1.61670002415776E+0001  2803
 1.61930002421141E+0001  2938
 1.62190002426505E+0001  2910
 1.62450002431870E+0001  2916
 1.62710002437234E+0001  2955
 1.62970002442598E+0001  2914
 1.63230002447963E+0001  2923
 1.63490002453327E+0001  2974
 1.63750002458692E+0001  2988
 1.64010002464056E+0001  2977
 1.64270002469420E+0001  3066
 1.64530002474785E+0001  3077
 1.64790002480149E+0001  2992
 1.65050002485514E+0001  3048
 1.65310002490878E+0001  2949
 1.65570002496243E+0001  2908
 1.65830002501607E+0001  2984
 1.66090002506971E+0001  3028
 1.66350002512336E+0001  3020
 1.66610002517700E+0001  2989
 1.66870002523065E+0001  2975
 1.67130002528429E+0001  2942
 1.67390002533793E+0001  2957
 1.67650002539158E+0001  3022
 1.67910002544522E+0001  3016
 1.68170002549887E+0001  3054
 1.68430002555251E+0001  3104
 1.68690002560616E+0001  3043
 1.68950002565980E+0001  3011
 1.69210002571344E+0001  3019
 1.69470002576709E+0001  3040
 1.69730002582073E+0001  3031
 1.69990002587438E+0001  2975
 1.70250002592802E+0001  2998
 1.70510002598166E+0001  3047
 1.70770002603531E+0001  3062
 1.71030002608895E+0001  3027
 1.71290002614260E+0001  3031
 1.71550002619624E+0001  3102
 1.71810002624989E+0001  3077
 1.72070002630353E+0001  3012
 1.72330002635717E+0001  2985
 1.72590002641082E+0001  3049
 1.72850002646446E+0001  3091
 1.73110002651811E+0001  3002
 1.73370002657175E+0001  3085
 1.73630002662539E+0001  3020
 1.73890002667904E+0001  3021
 1.74150002673268E+0001  3088
 1.74410002678633E+0001  3081
 1.74670002683997E+0001  3044
 1.74930002689362E+0001  3057
 1.75190002694726E+0001  3135
 1.75450002700090E+0001  3093
 1.75710002705455E+0001  3096
 1.75970002710819E+0001  3080
 1.76230002716184E+0001  3163
 1.76490002721548E+0001  3101
 1.76750002726912E+0001  3012
 1.77010002732277E+0001  3062
 1.77270002737641E+0001  3075
 1.77530002743006E+0001  3150
 1.77790002748370E+0001  3061
 1.78050002753735E+0001  3014
 1.78310002759099E+0001  3092
 1.78570002764463E+0001  3134
 1.78830002769828E+0001  3041
 1.79090002775192E+0001  3107
 1.79350002780557E+0001  3076
 1.79610002785921E+0001  3056
 1.79870002791286E+0001  3030
 1.80130002796650E+0001  3002
 1.80390002802014E+0001  3229
 1.80650002807379E+0001  3146
 1.80910002812743E+0001  3129
 1.81170002818108E+0001  3058
 1.81430002823472E+0001  3052
 1.81690002828836E+0001  3090
 1.81950002834201E+0001  3057
 1.82210002839565E+0001  3110
 1.82470002844930E+0001  3151
 1.82730002850294E+0001  3093
 1.82990002855659E+0001  3046
 1.83250002861023E+0001  3015
 1.83510002866387E+0001  3017
 1.83770002871752E+0001  3050
 1.84030002877116E+0001  3040
 1.84290002882481E+0001  3067
 1.84550002887845E+0001  3152
 1.84810002893209E+0001  3161
 1.85070002898574E+0001  3056
 1.85330002903938E+0001  3100
 1.85590002909303E+0001  3027
 1.85850002914667E+0001  3098
 1.86110002920032E+0001  3091
 1.86370002925396E+0001  3115
 1.86630002930760E+0001  3149
 1.86890002936125E+0001  3138
 1.87150002941489E+0001  3087
 1.87410002946854E+0001  3062
 1.87670002952218E+0001  3124
 1.87930002957582E+0001  3075
 1.88190002962947E+0001  3100
 1.88450002968311E+0001  3137
 1.88710002973676E+0001  3125
 1.88970002979040E+0001  3114
 1.89230002984405E+0001  3087
 1.89490002989769E+0001  3168
 1.89750002995133E+0001  3118
 1.90010003000498E+0001  3130
 1.90270003005862E+0001  3137
 1.90530003011227E+0001  3078
 1.90790003016591E+0001  3016
 1.91050003021955E+0001  2995
 1.91310003027320E+0001  3054
 1.91570003032684E+0001  3053
 1.91830003038049E+0001  3127
 1.92090003043413E+0001  3157
 1.92350003048778E+0001  3106
 1.92610003054142E+0001  3082
 1.92870003059506E+0001  3090
 1.93130003064871E+0001  3094
 1.93390003070235E+0001  3123
 1.93650003075600E+0001  3148
 1.93910003080964E+0001  3127
 1.94170003086329E+0001  3136
 1.94430003091693E+0001  3098
 1.94690003097057E+0001  3039
 1.94950003102422E+0001  3034
 1.95210003107786E+0001  3018
 1.95470003113151E+0001  3085
 1.95730003118515E+0001  3159
 1.95990003123879E+0001  3152
 1.96250003129244E+0001  3139
 1.96510003134608E+0001  3157
 1.96770003139973E+0001  3182
 1.97030003145337E+0001  3112
 1.97290003150702E+0001  3104
 1.97550003156066E+0001  3120
 1.97810003161430E+0001  3178
 1.98070003166795E+0001  3150
 1.98330003172159E+0001  3093
 1.98590003177524E+0001  3136
 1.98850003182888E+0001  3210
 1.99110003188252E+0001  3208
 1.99370003193617E+0001  3167
 1.99630003198981E+0001  3223
 1.99890003204346E+0001  3215
 2.00150003209710E+0001  3202
 2.00410003215075E+0001  3178
 2.00670003220439E+0001  3160
 2.00930003225803E+0001  3224
 2.01190003231168E+0001  3267
 2.01450003236532E+0001  3238
 2.01710003241897E+0001  3192
 2.01970003247261E+0001  3211
 2.02230003252625E+0001  3212
 2.02490003257990E+0001  3153
 2.02750003263354E+0001  3133
 2.03010003268719E+0001  3140
 2.03270003274083E+0001  3157
 2.03530003279448E+0001  3209
 2.03790003284812E+0001  3199
 2.04050003290176E+0001  3320
 2.04310003295541E+0001  3252
 2.04570003300905E+0001  3290
 2.04830003306270E+0001  3356
 2.05090003311634E+0001  3144
 2.05350003316998E+0001  3292
 2.05610003322363E+0001  3185
 2.05870003327727E+0001  3238
 2.06130003333092E+0001  3281
 2.06390003338456E+0001  3371
 2.06650003343821E+0001  3316
 2.06910003349185E+0001  3164
 2.07170003354549E+0001  3333
 2.07430003359914E+0001  3367
 2.07690003365278E+0001  3300
 2.07950003370643E+0001  3242
 2.08210003376007E+0001  3256
 2.08470003381371E+0001  3231
 2.08730003386736E+0001  3257
 2.08990003392100E+0001  3321
 2.09250003397465E+0001  3208
 2.09510003402829E+0001  3373
 2.09770003408194E+0001  3213
 2.10030003413558E+0001  3259
 2.10290003418922E+0001  3276
 2.10550003424287E+0001  3159
 2.10810003429651E+0001  3268
 2.11070003435016E+0001  3326
 2.11330003440380E+0001  3313
 2.11590003445745E+0001  3310
 2.11850003451109E+0001  3189
 2.12110003456473E+0001  3348
 2.12370003461838E+0001  3277
 2.12630003467202E+0001  3305
 2.12890003472567E+0001  3363
 2.13150003477931E+0001  3375
 2.13410003483295E+0001  3380
 2.13670003488660E+0001  3311
 2.13930003494024E+0001  3291
 2.14190003499389E+0001  3299
 2.14450003504753E+0001  3310
 2.14710003510118E+0001  3276
 2.14970003515482E+0001  3360
 2.15230003520846E+0001  3322
 2.15490003526211E+0001  3403
 2.15750003531575E+0001  3404
 2.16010003536940E+0001  3379
 2.16270003542304E+0001  3384
 2.16530003547668E+0001  3388
 2.16790003553033E+0001  3346
 2.17050003558397E+0001  3388
 2.17310003563762E+0001  3370
 2.17570003569126E+0001  3374
 2.17830003574491E+0001  3354
 2.18090003579855E+0001  3324
 2.18350003585219E+0001  3356
 2.18610003590584E+0001  3402
 2.18870003595948E+0001  3389
 2.19130003601313E+0001  3373
 2.19390003606677E+0001  3425
 2.19650003612041E+0001  3436
 2.19910003617406E+0001  3393
 2.20170003622770E+0001  3413
 2.20430003628135E+0001  3483
 2.20690003633499E+0001  3505
 2.20950003638864E+0001  3432
 2.21210003644228E+0001  3394
 2.21470003649592E+0001  3439
 2.21730003654957E+0001  3414
 2.21990003660321E+0001  3414
 2.22250003665686E+0001  3434
 2.22510003671050E+0001  3400
 2.22770003676414E+0001  3448
 2.23030003681779E+0001  3425
 2.23290003687143E+0001  3367
 2.23550003692508E+0001  3405
 2.23810003697872E+0001  3461
 2.24070003703237E+0001  3487
 2.24330003708601E+0001  3463
 2.24590003713965E+0001  3451
 2.24850003719330E+0001  3406
 2.25110003724694E+0001  3543
 2.25370003730059E+0001  3467
 2.25630003735423E+0001  3502
 2.25890003740788E+0001  3539
 2.26150003746152E+0001  3466
 2.26410003751516E+0001  3324
 2.26670003756881E+0001  3427
 2.26930003762245E+0001  3510
 2.27190003767610E+0001  3556
 2.27450003772974E+0001  3486
 2.27710003778338E+0001  3460
 2.27970003783703E+0001  3548
 2.28230003789067E+0001  3457
 2.28490003794432E+0001  3556
 2.28750003799796E+0001  3532
 2.29010003805161E+0001  3521
 2.29270003810525E+0001  3527
 2.29530003815889E+0001  3516
 2.29790003821254E+0001  3468
 2.30050003826618E+0001  3508
 2.30310003831983E+0001  3540
 2.30570003837347E+0001  3465
 2.30830003842711E+0001  3424
 2.31090003848076E+0001  3569
 2.31350003853440E+0001  3550
 2.31610003858805E+0001  3564
 2.31870003864169E+0001  3545
 2.32130003869534E+0001  3610
 2.32390003874898E+0001  3605
 2.32650003880262E+0001  3534
 2.32910003885627E+0001  3510
 2.33170003890991E+0001  3570
 2.33430003896356E+0001  3567
 2.33690003901720E+0001  3534
 2.33950003907084E+0001  3525
 2.34210003912449E+0001  3588
 2.34470003917813E+0001  3551
 2.34730003923178E+0001  3583
 2.34990003928542E+0001  3668
 2.35250003933907E+0001  3602
 2.35510003939271E+0001  3589
 2.35770003944635E+0001  3558
 2.36030003950000E+0001  3495
 2.36290003955364E+0001  3653
 2.36550003960729E+0001  3521
 2.36810003966093E+0001  3456
 2.37070003971457E+0001  3536
 2.37330003976822E+0001  3661
 2.37590003982186E+0001  3672
 2.37850003987551E+0001  3601
 2.38110003992915E+0001  3665
 2.38370003998280E+0001  3626
 2.38630004003644E+0001  3584
 2.38890004009008E+0001  3627
 2.39150004014373E+0001  3564
 2.39410004019737E+0001  3622
 2.39670004025102E+0001  3677
 2.39930004030466E+0001  3642
 2.40190004035830E+0001  3631
 2.40450004041195E+0001  3681
 2.40710004046559E+0001  3606
 2.40970004051924E+0001  3637
 2.41230004057288E+0001  3647
 2.41490004062653E+0001  3664
 2.41750004068017E+0001  3633
 2.42010004073381E+0001  3700
 2.42270004078746E+0001  3658
 2.42530004084110E+0001  3582
 2.42790004089475E+0001  3637
 2.43050004094839E+0001  3604
 2.43310004100204E+0001  3627
 2.43570004105568E+0001  3610
 2.43830004110932E+0001  3547
 2.44090004116297E+0001  3591
 2.44350004121661E+0001  3597
 2.44610004127026E+0001  3620
 2.44870004132390E+0001  3619
 2.45130004137754E+0001  3605
 2.45390004143119E+0001  3647
 2.45650004148483E+0001  3656
 2.45910004153848E+0001  3667
 2.46170004159212E+0001  3614
 2.46430004164577E+0001  3581
 2.46690004169941E+0001  3615
 2.46950004175305E+0001  3598
 2.47210004180670E+0001  3564
 2.47470004186034E+0001  3589
 2.47730004191399E+0001  3586
 2.47990004196763E+0001  3580
 2.48250004202127E+0001  3632
 2.48510004207492E+0001  3589
 2.48770004212856E+0001  3617
 2.49030004218221E+0001  3659
 2.49290004223585E+0001  3613
 2.49550004228950E+0001  3626
 2.49810004234314E+0001  3644
 2.50070004239678E+0001  3603
 2.50330004245043E+0001  3580
 2.50590004250407E+0001  3625
 2.50850004255772E+0001  3695
 2.51110004261136E+0001  3716
 2.51370004266500E+0001  3708
 2.51630004271865E+0001  3696
 2.51890004277229E+0001  3713
 2.52150004282594E+0001  3734
 2.52410004287958E+0001  3614
 2.52670004293323E+0001  3614
 2.52930004298687E+0001  3686
 2.53190004304051E+0001  3698
 2.53450004309416E+0001  3685
 2.53710004314780E+0001  3626
 2.53970004320145E+0001  3713
 2.54230004325509E+0001  3612
 2.54490004330873E+0001  3635
 2.54750004336238E+0001  3642
 2.55010004341602E+0001  3619
 2.55270004346967E+0001  3604
 2.55530004352331E+0001  3638
 2.55790004357696E+0001  3559
 2.56050004363060E+0001  3653
 2.56310004368424E+0001  3638
 2.56570004373789E+0001  3619
 2.56830004379153E+0001  3597
 2.57090004384518E+0001  3549
 2.57350004389882E+0001  3596
 2.57610004395247E+0001  3697
 2.57870004400611E+0001  3736
 2.58130004405975E+0001  3574
 2.58390004411340E+0001  3543
 2.58650004416704E+0001  3666
 2.58910004422069E+0001  3652
 2.59170004427433E+0001  3527
 2.59430004432797E+0001  3583
 2.59690004438162E+0001  3614
 2.59950004443526E+0001  3572
 2.60210004448891E+0001  3629
 2.60470004454255E+0001  3525
 2.60730004459620E+0001  3675
 2.60990004464984E+0001  3587
 2.61250004470348E+0001  3574
 2.61510004475713E+0001  3673
 2.61770004481077E+0001  3585
 2.62030004486442E+0001  3588
 2.62290004491806E+0001  3621
 2.62550004497170E+0001  3578
 2.62810004502535E+0001  3664
 2.63070004507899E+0001  3657
 2.63330004513264E+0001  3774
 2.63590004518628E+0001  3600
 2.63850004523993E+0001  3507
 2.64110004529357E+0001  3589
 2.64370004534721E+0001  3611
 2.64630004540086E+0001  3546
 2.64890004545450E+0001  3595
 2.65150004550815E+0001  3627
 2.65410004556179E+0001  3718
 2.65670004561543E+0001  3624
 2.65930004566908E+0001  3629
 2.66190004572272E+0001  3783
 2.66450004577637E+0001  3679
 2.66710004583001E+0001  3655
 2.66970004588366E+0001  3655
 2.67230004593730E+0001  3660
 2.67490004599094E+0001  3637
 2.67750004604459E+0001  3636
 2.68010004609823E+0001  3554
 2.68270004615188E+0001  3592
 2.68530004620552E+0001  3582
 2.68790004625916E+0001  3607
 2.69050004631281E+0001  3630
 2.69310004636645E+0001  3618
 2.69570004642010E+0001  3623
 2.69830004647374E+0001  3593
 2.70090004652739E+0001  3569
 2.70350004658103E+0001  3593
 2.70610004663467E+0001  3604
 2.70870004668832E+0001  3622
 2.71130004674196E+0001  3590
 2.71390004679561E+0001  3580
 2.71650004684925E+0001  3658
 2.71910004690289E+0001  3636
 2.72170004695654E+0001  3636
 2.72430004701018E+0001  3681
 2.72690004706383E+0001  3653
 2.72950004711747E+0001  3643
 2.73210004717112E+0001  3640
 2.73470004722476E+0001  3624
 2.73730004727840E+0001  3654
 2.73990004733205E+0001  3684
 2.74250004738569E+0001  3703
 2.74510004743934E+0001  3716
 2.74770004749298E+0001  3665
 2.75030004754663E+0001  3658
 2.75290004760027E+0001  3681
 2.75550004765391E+0001  3672
 2.75810004770756E+0001  3578
 2.76070004776120E+0001  3492
 2.76330004781485E+0001  3595
 2.76590004786849E+0001  3683
 2.76850004792213E+0001  3794
 2.77110004797578E+0001  3775
 2.77370004802942E+0001  3678
 2.77630004808307E+0001  3650
 2.77890004813671E+0001  3737
 2.78150004819036E+0001  3714
 2.78410004824400E+0001  3664
 2.78670004829764E+0001  3649
 2.78930004835129E+0001  3725
 2.79190004840493E+0001  3772
 2.79450004845858E+0001  3756
 2.79710004851222E+0001  3797
 2.79970004856586E+0001  3753
 2.80230004861951E+0001  3749
 2.80490004867315E+0001  3714
 2.80750004872680E+0001  3747
 2.81010004878044E+0001  3717
 2.81270004883409E+0001  3668
 2.81530004888773E+0001  3721
 2.81790004894137E+0001  3862
 2.82050004899502E+0001  3792
 2.82310004904866E+0001  3670
 2.82570004910231E+0001  3803
 2.82830004915595E+0001  3788
 2.83090004920959E+0001  3758
 2.83350004926324E+0001  3699
 2.83610004931688E+0001  3667
 2.83870004937053E+0001  3697
 2.84130004942417E+0001  3768
 2.84390004947782E+0001  3748
 2.84650004953146E+0001  3807
 2.84910004958510E+0001  3649
 2.85170004963875E+0001  3764
 2.85430004969239E+0001  3839
 2.85690004974604E+0001  3820
 2.85950004979968E+0001  3789
 2.86210004985332E+0001  3918
 2.86470004990697E+0001  3938
 2.86730004996061E+0001  3810
 2.86990005001426E+0001  3908
 2.87250005006790E+0001  3885
 2.87510005012155E+0001  3864
 2.87770005017519E+0001  3803
 2.88030005022883E+0001  3939
 2.88290005028248E+0001  3861
 2.88550005033612E+0001  3824
 2.88810005038977E+0001  3868
 2.89070005044341E+0001  3655
 2.89330005049706E+0001  3771
 2.89590005055070E+0001  3791
 2.89850005060434E+0001  3768
 2.90110005065799E+0001  3750
 2.90370005071163E+0001  3764
 2.90630005076528E+0001  3797
 2.90890005081892E+0001  3765
 2.91150005087256E+0001  3894
 2.91410005092621E+0001  3871
 2.91670005097985E+0001  3810
 2.91930005103350E+0001  3935
 2.92190005108714E+0001  3888
 2.92450005114079E+0001  3828
 2.92710005119443E+0001  3924
 2.92970005124807E+0001  3875
 2.93230005130172E+0001  3859
 2.93490005135536E+0001  3822
 2.93750005140901E+0001  3796
 2.94010005146265E+0001  3858
 2.94270005151629E+0001  3862
 2.94530005156994E+0001  3850
 2.94790005162358E+0001  3962
 2.95050005167723E+0001  3938
 2.95310005173087E+0001  3867
 2.95570005178452E+0001  3842
 2.95830005183816E+0001  3878
 2.96090005189180E+0001  3873
 2.96350005194545E+0001  3777
 2.96610005199909E+0001  3815
 2.96870005205274E+0001  3963
 2.97130005210638E+0001  3933
 2.97390005216002E+0001  3868
 2.97650005221367E+0001  3882
 2.97910005226731E+0001  3855
 2.98170005232096E+0001  3800
 2.98430005237460E+0001  3891
 2.98690005242825E+0001  3935
 2.98950005248189E+0001  3883
 2.99210005253553E+0001  3883
 2.99470005258918E+0001  3889
 2.99730005264282E+0001  3850
 2.99990005269647E+0001  3811
 3.00250005275011E+0001  3887
 3.00510005280375E+0001  3847
 3.00770005285740E+0001  3720
 3.01030005291104E+0001  3796
 3.01290005296469E+0001  3844
 3.01550005301833E+0001  3813
 3.01810005307198E+0001  3823
 3.02070005312562E+0001  3829
 3.02330005317926E+0001  3814
 3.02590005323291E+0001  3776
 3.02850005328655E+0001  3821
 3.03110005334020E+0001  3852
 3.03370005339384E+0001  3825
 3.03630005344748E+0001  3854
 3.03890005350113E+0001  3806
 3.04150005355477E+0001  3814
 3.04410005360842E+0001  3842
 3.04670005366206E+0001  3836
 3.04930005371571E+0001  3837
 3.05190005376935E+0001  3851
 3.05450005382299E+0001  3777
 3.05710005387664E+0001  3787
 3.05970005393028E+0001  3857
 3.06230005398393E+0001  3780
 3.06490005403757E+0001  3760
 3.06750005409122E+0001  3737
 3.07010005414486E+0001  3817
 3.07270005419850E+0001  3827
 3.07530005425215E+0001  3714
 3.07790005430579E+0001  3833
 3.08050005435944E+0001  3755
 3.08310005441308E+0001  3755
 3.08570005446672E+0001  3668
 3.08830005452037E+0001  3746
 3.09090005457401E+0001  3807
 3.09350005462766E+0001  3715
 3.09610005468130E+0001  3684
 3.09870005473495E+0001  3628
 3.10130005478859E+0001  3638
 3.10390005484223E+0001  3617
 3.10650005489588E+0001  3727
 3.10910005494952E+0001  3625
 3.11170005500317E+0001  3654
 3.11430005505681E+0001  3654
 3.11690005511045E+0001  3660
 3.11950005516410E+0001  3621
 3.12210005521774E+0001  3637
 3.12470005527139E+0001  3669
 3.12730005532503E+0001  3680
 3.12990005537868E+0001  3736
 3.13250005543232E+0001  3611
 3.13510005548596E+0001  3595
 3.13770005553961E+0001  3653
 3.14030005559325E+0001  3677
 3.14290005564690E+0001  3664
 3.14550005570054E+0001  3636
 3.14810005575418E+0001  3679
 3.15070005580783E+0001  3649
 3.15330005586147E+0001  3652
 3.15590005591512E+0001  3627
 3.15850005596876E+0001  3596
 3.16110005602241E+0001  3584
 3.16370005607605E+0001  3725
 3.16630005612969E+0001  3546
 3.16890005618334E+0001  3642
 3.17150005623698E+0001  3674
 3.17410005629063E+0001  3619
 3.17670005634427E+0001  3653
 3.17930005639791E+0001  3627
 3.18190005645156E+0001  3655
 3.18450005650520E+0001  3582
 3.18710005655885E+0001  3593
 3.18970005661249E+0001  3713
 3.19230005666614E+0001  3621
 3.19490005671978E+0001  3583
 3.19750005677342E+0001  3618
 3.20010005682707E+0001  3653
 3.20270005688071E+0001  3613
 3.20530005693436E+0001  3620
 3.20790005698800E+0001  3590
 3.21050005704165E+0001  3579
 3.21310005709529E+0001  3548
 3.21570005714893E+0001  3606
 3.21830005720258E+0001  3646
 3.22090005725622E+0001  3693
 3.22350005730987E+0001  3628
 3.22610005736351E+0001  3480
 3.22870005741715E+0001  3536
 3.23130005747080E+0001  3537
 3.23390005752444E+0001  3564
 3.23650005757809E+0001  3579
 3.23910005763173E+0001  3545
 3.24170005768538E+0001  3592
 3.24430005773902E+0001  3648
 3.24690005779266E+0001  3579
 3.24950005784631E+0001  3557
 3.25210005789995E+0001  3551
 3.25470005795360E+0001  3540
 3.25730005800724E+0001  3621
 3.25990005806088E+0001  3620
 3.26250005811453E+0001  3607
 3.26510005816817E+0001  3604
 3.26770005822182E+0001  3619
 3.27030005827546E+0001  3707
 3.27290005832911E+0001  3741
 3.27550005838275E+0001  3735
 3.27810005843639E+0001  3681
 3.28070005849004E+0001  3686
 3.28330005854368E+0001  3730
 3.28590005859733E+0001  3662
 3.28850005865097E+0001  3622
 3.29110005870461E+0001  3693
 3.29370005875826E+0001  3657
 3.29630005881190E+0001  3684
 3.29890005886555E+0001  3657
 3.30150005891919E+0001  3692
 3.30410005897284E+0001  3732
 3.30670005902648E+0001  3675
 3.30930005908012E+0001  3780
 3.31190005913377E+0001  3701
 3.31450005918741E+0001  3797
 3.31710005924106E+0001  3784
 3.31970005929470E+0001  3771
 3.32230005934834E+0001  3784
 3.32490005940199E+0001  3879
 3.32750005945563E+0001  3828
 3.33010005950928E+0001  3797
 3.33270005956292E+0001  3867
 3.33530005961657E+0001  3845
 3.33790005967021E+0001  3862
 3.34050005972385E+0001  3878
 3.34310005977750E+0001  3891
 3.34570005983114E+0001  4045
 3.34830005988479E+0001  3939
 3.35090005993843E+0001  3900
 3.35350005999207E+0001  3970
 3.35610006004572E+0001  4037
 3.35870006009936E+0001  4058
 3.36130006015301E+0001  4017
 3.36390006020665E+0001  4022
 3.36650006026030E+0001  4167
 3.36910006031394E+0001  4078
 3.37170006036758E+0001  4117
 3.37430006042123E+0001  4090
 3.37690006047487E+0001  4103
 3.37950006052852E+0001  4116
 3.38210006058216E+0001  4241
 3.38470006063581E+0001  4259
 3.38730006068945E+0001  4191
 3.38990006074309E+0001  4264
 3.39250006079674E+0001  4260
 3.39510006085038E+0001  4315
 3.39770006090403E+0001  4368
 3.40030006095767E+0001  4418
 3.40290006101131E+0001  4371
 3.40550006106496E+0001  4408
 3.40810006111860E+0001  4405
 3.41070006117225E+0001  4372
 3.41330006122589E+0001  4443
 3.41590006127954E+0001  4640
 3.41850006133318E+0001  4573
 3.42110006138682E+0001  4549
 3.42370006144047E+0001  4615
 3.42630006149411E+0001  4592
 3.42890006154776E+0001  4657
 3.43150006160140E+0001  4710
 3.43410006165504E+0001  4698
 3.43670006170869E+0001  4725
 3.43930006176233E+0001  4772
 3.44190006181598E+0001  4813
 3.44450006186962E+0001  4945
 3.44710006192327E+0001  4923
 3.44970006197691E+0001  4916
 3.45230006203055E+0001  4913
 3.45490006208420E+0001  4891
 3.45750006213784E+0001  4885
 3.46010006219149E+0001  5068
 3.46270006224513E+0001  5020
 3.46530006229877E+0001  5092
 3.46790006235242E+0001  5008
 3.47050006240606E+0001  5061
 3.47310006245971E+0001  5290
 3.47570006251335E+0001  5278
 3.47830006256700E+0001  5249
 3.48090006262064E+0001  5182
 3.48350006267428E+0001  5219
 3.48610006272793E+0001  5298
 3.48870006278157E+0001  5338
 3.49130006283522E+0001  5258
 3.49390006288886E+0001  5237
 3.49650006294250E+0001  5364
 3.49910006299615E+0001  5475
 3.50170006304979E+0001  5505
 3.50430006310344E+0001  5457
 3.50690006315708E+0001  5367
 3.50950006321073E+0001  5271
 3.51210006326437E+0001  5332
 3.51470006331801E+0001  5440
 3.51730006337166E+0001  5420
 3.51990006342530E+0001  5438
 3.52250006347895E+0001  5453
 3.52510006353259E+0001  5435
 3.52770006358624E+0001  5438
 3.53030006363988E+0001  5353
 3.53290006369352E+0001  5326
 3.53550006374717E+0001  5393
 3.53810006380081E+0001  5377
 3.54070006385446E+0001  5376
 3.54330006390810E+0001  5350
 3.54590006396174E+0001  5326
 3.54850006401539E+0001  5340
 3.55110006406903E+0001  5276
 3.55370006412268E+0001  5243
 3.55630006417632E+0001  5270
 3.55890006422997E+0001  5278
 3.56150006428361E+0001  5220
 3.56410006433725E+0001  5216
 3.56670006439090E+0001  5132
 3.56930006444454E+0001  5033
 3.57190006449819E+0001  5050
 3.57450006455183E+0001  4947
 3.57710006460547E+0001  4883
 3.57970006465912E+0001  4825
 3.58230006471276E+0001  4769
 3.58490006476641E+0001  4762
 3.58750006482005E+0001  4752
 3.59010006487370E+0001  4751
 3.59270006492734E+0001  4718
 3.59530006498098E+0001  4677
 3.59790006503463E+0001  4564
 3.60050006508827E+0001  4581
 3.60310006514192E+0001  4595
 3.60570006519556E+0001  4498
 3.60830006524920E+0001  4443
 3.61090006530285E+0001  4544
 3.61350006535649E+0001  4551
 3.61610006541014E+0001  4400
 3.61870006546378E+0001  4360
 3.62130006551743E+0001  4495
 3.62390006557107E+0001  4357
 3.62650006562471E+0001  4254
 3.62910006567836E+0001  4249
 3.63170006573200E+0001  4209
 3.63430006578565E+0001  4237
 3.63690006583929E+0001  4271
 3.63950006589293E+0001  4321
 3.64210006594658E+0001  4243
 3.64470006600022E+0001  4120
 3.64730006605387E+0001  4215
 3.64990006610751E+0001  4232
 3.65250006616116E+0001  4244
 3.65510006621480E+0001  4086
 3.65770006626844E+0001  4177
 3.66030006632209E+0001  4114
 3.66290006637573E+0001  4118
 3.66550006642938E+0001  4136
 3.66810006648302E+0001  4027
 3.67070006653666E+0001  4051
 3.67330006659031E+0001  3964
 3.67590006664395E+0001  4170
 3.67850006669760E+0001  4131
 3.68110006675124E+0001  4108
 3.68370006680489E+0001  4006
 3.68630006685853E+0001  3855
 3.68890006691217E+0001  3925
 3.69150006696582E+0001  3967
 3.69410006701946E+0001  3811
 3.69670006707311E+0001  3863
 3.69930006712675E+0001  3948
 3.70190006718040E+0001  3843
 3.70450006723404E+0001  3770
 3.70710006728768E+0001  3729
 3.70970006734133E+0001  3713
 3.71230006739497E+0001  3653
 3.71490006744862E+0001  3704
 3.71750006750226E+0001  3674
 3.72010006755590E+0001  3571
 3.72270006760955E+0001  3531
 3.72530006766319E+0001  3453
 3.72790006771684E+0001  3450
 3.73050006777048E+0001  3465
 3.73310006782413E+0001  3473
 3.73570006787777E+0001  3433
 3.73830006793141E+0001  3299
 3.74090006798506E+0001  3316
 3.74350006803870E+0001  3288
 3.74610006809235E+0001  3303
 3.74870006814599E+0001  3273
 3.75130006819963E+0001  3211
 3.75390006825328E+0001  3174
 3.75650006830692E+0001  3155
 3.75910006836057E+0001  3102
 3.76170006841421E+0001  3059
 3.76430006846786E+0001  3114
 3.76690006852150E+0001  3088
 3.76950006857514E+0001  3025
 3.77210006862879E+0001  3011
 3.77470006868243E+0001  3031
 3.77730006873608E+0001  3050
 3.77990006878972E+0001  2981
 3.78250006884336E+0001  2977
 3.78510006889701E+0001  3033
 3.78770006895065E+0001  3002
 3.79030006900430E+0001  2969
 3.79290006905794E+0001  2897
 3.79550006911159E+0001  2859
 3.79810006916523E+0001  2921
 3.80070006921887E+0001  2882
 3.80330006927252E+0001  2847
 3.80590006932616E+0001  2924
 3.80850006937981E+0001  2925
 3.81110006943345E+0001  2838
 3.81370006948709E+0001  2863
 3.81630006954074E+0001  2795
 3.81890006959438E+0001  2856
 3.82150006964803E+0001  2863
 3.82410006970167E+0001  2890
 3.82670006975532E+0001  2936
 3.82930006980896E+0001  2890
 3.83190006986260E+0001  2808
 3.83450006991625E+0001  2847
 3.83710006996989E+0001  2879
 3.83970007002354E+0001  2791
 3.84230007007718E+0001  2751
 3.84490007013083E+0001  2753
 3.84750007018447E+0001  2772
 3.85010007023811E+0001  2773
 3.85270007029176E+0001  2806
 3.85530007034540E+0001  2780
 3.85790007039905E+0001  2788
 3.86050007045269E+0001  2751
 3.86310007050633E+0001  2740
 3.86570007055998E+0001  2813
 3.86830007061362E+0001  2688
 3.87090007066727E+0001  2676
 3.87350007072091E+0001  2710
 3.87610007077456E+0001  2779
 3.87870007082820E+0001  2640
 3.88130007088184E+0001  2693
 3.88390007093549E+0001  2667
 3.88650007098913E+0001  2663
 3.88910007104278E+0001  2722
 3.89170007109642E+0001  2720
 3.89430007115006E+0001  2695
 3.89690007120371E+0001  2605
 3.89950007125735E+0001  2710
 3.90210007131100E+0001  2687
 3.90470007136464E+0001  2682
 3.90730007141829E+0001  2569
 3.90990007147193E+0001  2651
 3.91250007152557E+0001  2628
 3.91510007157922E+0001  2633
 3.91770007163286E+0001  2593
 3.92030007168651E+0001  2569
 3.92290007174015E+0001  2641
 3.92550007179379E+0001  2698
 3.92810007184744E+0001  2693
 3.93070007190108E+0001  2719
 3.93330007195473E+0001  2597
 3.93590007200837E+0001  2601
 3.93850007206202E+0001  2572
 3.94110007211566E+0001  2515
 3.94370007216930E+0001  2596
 3.94630007222295E+0001  2590
 3.94890007227659E+0001  2624
 3.95150007233024E+0001  2585
 3.95410007238388E+0001  2493
 3.95670007243752E+0001  2526
 3.95930007249117E+0001  2568
 3.96190007254481E+0001  2527
 3.96450007259846E+0001  2603
 3.96710007265210E+0001  2613
 3.96970007270575E+0001  2516
 3.97230007275939E+0001  2562
 3.97490007281303E+0001  2530
 3.97750007286668E+0001  2642
 3.98010007292032E+0001  2592
 3.98270007297397E+0001  2514
 3.98530007302761E+0001  2546
 3.98790007308125E+0001  2522
 3.99050007313490E+0001  2475
 3.99310007318854E+0001  2511
 3.99570007324219E+0001  2531
 3.99830007329583E+0001  2549
 4.00090007334948E+0001  2515
 4.00350007340312E+0001  2531
 4.00610007345676E+0001  2576
 4.00870007351041E+0001  2541
 4.01130007356405E+0001  2540
 4.01390007361770E+0001  2482
 4.01650007367134E+0001  2456
 4.01910007372499E+0001  2469
 4.02170007377863E+0001  2516
 4.02430007383227E+0001  2536
 4.02690007388592E+0001  2526
 4.02950007393956E+0001  2514
 4.03210007399321E+0001  2504
 4.03470007404685E+0001  2531
 4.03730007410049E+0001  2528
 4.03990007415414E+0001  2497
 4.04250007420778E+0001  2466
 4.04510007426143E+0001  2485
 4.04770007431507E+0001  2512
 4.05030007436872E+0001  2491
 4.05290007442236E+0001  2508
 4.05550007447600E+0001  2514
 4.05810007452965E+0001  2485
 4.06070007458329E+0001  2463
 4.06330007463694E+0001  2442
 4.06590007469058E+0001  2422
 4.06850007474422E+0001  2432
 4.07110007479787E+0001  2430
 4.07370007485151E+0001  2458
 4.07630007490516E+0001  2480
 4.07890007495880E+0001  2537
 4.08150007501245E+0001  2483
 4.08410007506609E+0001  2457
 4.08670007511973E+0001  2455
 4.08930007517338E+0001  2514
 4.09190007522702E+0001  2438
 4.09450007528067E+0001  2475
 4.09710007533431E+0001  2540
 4.09970007538795E+0001  2497
 4.10230007544160E+0001  2479
 4.10490007549524E+0001  2451
 4.10750007554889E+0001  2518
 4.11010007560253E+0001  2539
 4.11270007565618E+0001  2546
 4.11530007570982E+0001  2565
 4.11790007576346E+0001  2468
 4.12050007581711E+0001  2460
 4.12310007587075E+0001  2482
 4.12570007592440E+0001  2555
 4.12830007597804E+0001  2455
 4.13090007603168E+0001  2480
 4.13350007608533E+0001  2476
 4.13610007613897E+0001  2487
 4.13870007619262E+0001  2452
 4.14130007624626E+0001  2519
 4.14390007629991E+0001  2548
 4.14650007635355E+0001  2530
 4.14910007640719E+0001  2488
 4.15170007646084E+0001  2457
 4.15430007651448E+0001  2513
 4.15690007656813E+0001  2400
 4.15950007662177E+0001  2451
 4.16210007667542E+0001  2465
 4.16470007672906E+0001  2494
 4.16730007678270E+0001  2460
 4.16990007683635E+0001  2452
 4.17250007688999E+0001  2570
 4.17510007694364E+0001  2447
 4.17770007699728E+0001  2574
 4.18030007705092E+0001  2485
 4.18290007710457E+0001  2531
 4.18550007715821E+0001  2467
 4.18810007721186E+0001  2435
 4.19070007726550E+0001  2601
 4.19330007731915E+0001  2419
 4.19590007737279E+0001  2572
 4.19850007742643E+0001  2559
 4.20110007748008E+0001  2527
 4.20370007753372E+0001  2505
 4.20630007758737E+0001  2538
 4.20890007764101E+0001  2603
 4.21150007769465E+0001  2676
 4.21410007774830E+0001  2744
 4.21670007780194E+0001  2748
 4.21930007785559E+0001  2865
 4.22190007790923E+0001  2908
 4.22450007796288E+0001  3024
 4.22710007801652E+0001  3142
 4.22970007807016E+0001  3104
 4.23230007812381E+0001  3162
 4.23490007817745E+0001  3302
 4.23750007823110E+0001  3443
 4.24010007828474E+0001  3526
 4.24270007833838E+0001  3573
 4.24530007839203E+0001  3679
 4.24790007844567E+0001  3766
 4.25050007849932E+0001  3882
 4.25310007855296E+0001  4022
 4.25570007860661E+0001  4072
 4.25830007866025E+0001  4310
 4.26090007871389E+0001  4442
 4.26350007876754E+0001  4507
 4.26610007882118E+0001  4663
 4.26870007887483E+0001  4771
 4.27130007892847E+0001  4800
 4.27390007898211E+0001  4879
 4.27650007903576E+0001  4979
 4.27910007908940E+0001  5100
 4.28170007914305E+0001  5142
 4.28430007919669E+0001  5175
 4.28690007925034E+0001  5191
 4.28950007930398E+0001  5246
 4.29210007935762E+0001  5265
 4.29470007941127E+0001  5278
 4.29730007946491E+0001  5296
 4.29990007951856E+0001  5250
 4.30250007957220E+0001  5201
 4.30510007962584E+0001  5069
 4.30770007967949E+0001  5002
 4.31030007973313E+0001  5052
 4.31290007978678E+0001  4971
 4.31550007984042E+0001  4785
 4.31810007989407E+0001  4697
 4.32070007994771E+0001  4623
 4.32330008000135E+0001  4509
 4.32590008005500E+0001  4389
 4.32850008010864E+0001  4168
 4.33110008016229E+0001  4124
 4.33370008021593E+0001  4008
 4.33630008026958E+0001  3840
 4.33890008032322E+0001  3819
 4.34150008037686E+0001  3646
 4.34410008043051E+0001  3454
 4.34670008048415E+0001  3389
 4.34930008053780E+0001  3335
 4.35190008059144E+0001  3228
 4.35450008064508E+0001  3143
 4.35710008069873E+0001  3010
 4.35970008075237E+0001  2969
 4.36230008080602E+0001  2894
 4.36490008085966E+0001  2891
 4.36750008091331E+0001  2732
 4.37010008096695E+0001  2652
 4.37270008102059E+0001  2618
 4.37530008107424E+0001  2618
 4.37790008112788E+0001  2619
 4.38050008118153E+0001  2572
 4.38310008123517E+0001  2484
 4.38570008128881E+0001  2586
 4.38830008134246E+0001  2513
 4.39090008139610E+0001  2531
 4.39350008144975E+0001  2435
 4.39610008150339E+0001  2433
 4.39870008155704E+0001  2484
 4.40130008161068E+0001  2425
 4.40390008166432E+0001  2466
 4.40650008171797E+0001  2469
 4.40910008177161E+0001  2520
 4.41170008182526E+0001  2523
 4.41430008187890E+0001  2499
 4.41690008193254E+0001  2426
 4.41950008198619E+0001  2485
 4.42210008203983E+0001  2490
 4.42470008209348E+0001  2454
 4.42730008214712E+0001  2558
 4.42990008220077E+0001  2532
 4.43250008225441E+0001  2427
 4.43510008230805E+0001  2473
 4.43770008236170E+0001  2443
 4.44030008241534E+0001  2512
 4.44290008246899E+0001  2449
 4.44550008252263E+0001  2423
 4.44810008257627E+0001  2421
 4.45070008262992E+0001  2486
 4.45330008268356E+0001  2452
 4.45590008273721E+0001  2382
 4.45850008279085E+0001  2416
 4.46110008284450E+0001  2389
 4.46370008289814E+0001  2374
 4.46630008295178E+0001  2388
 4.46890008300543E+0001  2430
 4.47150008305907E+0001  2428
 4.47410008311272E+0001  2492
 4.47670008316636E+0001  2445
 4.47930008322001E+0001  2452
 4.48190008327365E+0001  2464
 4.48450008332729E+0001  2424
 4.48710008338094E+0001  2468
 4.48970008343458E+0001  2462
 4.49230008348823E+0001  2509
 4.49490008354187E+0001  2397
 4.49750008359551E+0001  2354
 4.50010008364916E+0001  2352
 4.50270008370280E+0001  2388
 4.50530008375645E+0001  2450
 4.50790008381009E+0001  2383
 4.51050008386374E+0001  2361
 4.51310008391738E+0001  2394
 4.51570008397102E+0001  2393
 4.51830008402467E+0001  2390
 4.52090008407831E+0001  2400
 4.52350008413196E+0001  2418
 4.52610008418560E+0001  2383
 4.52870008423924E+0001  2386
 4.53130008429289E+0001  2438
 4.53390008434653E+0001  2389
 4.53650008440018E+0001  2387
 4.53910008445382E+0001  2437
 4.54170008450747E+0001  2392
 4.54430008456111E+0001  2362
 4.54690008461475E+0001  2357
 4.54950008466840E+0001  2328
 4.55210008472204E+0001  2340
 4.55470008477569E+0001  2340
 4.55730008482933E+0001  2357
 4.55990008488297E+0001  2365
 4.56250008493662E+0001  2369
 4.56510008499026E+0001  2385
 4.56770008504391E+0001  2345
 4.57030008509755E+0001  2383
 4.57290008515120E+0001  2398
 4.57550008520484E+0001  2385
 4.57810008525848E+0001  2380
 4.58070008531213E+0001  2304
 4.58330008536577E+0001  2359
 4.58590008541942E+0001  2362
 4.58850008547306E+0001  2338
 4.59110008552670E+0001  2385
 4.59370008558035E+0001  2410
 4.59630008563399E+0001  2430
 4.59890008568764E+0001  2421
 4.60150008574128E+0001  2418
 4.60410008579493E+0001  2424
 4.60670008584857E+0001  2334
 4.60930008590221E+0001  2360
 4.61190008595586E+0001  2377
 4.61450008600950E+0001  2290
 4.61710008606315E+0001  2353
 4.61970008611679E+0001  2415
 4.62230008617043E+0001  2438
 4.62490008622408E+0001  2333
 4.62750008627772E+0001  2294
 4.63010008633137E+0001  2365
 4.63270008638501E+0001  2398
 4.63530008643866E+0001  2417
 4.63790008649230E+0001  2371
 4.64050008654594E+0001  2346
 4.64310008659959E+0001  2350
 4.64570008665323E+0001  2388
 4.64830008670688E+0001  2419
 4.65090008676052E+0001  2436
 4.65350008681417E+0001  2340
 4.65610008686781E+0001  2370
 4.65870008692145E+0001  2436
 4.66130008697510E+0001  2264
 4.66390008702874E+0001  2322
 4.66650008708239E+0001  2273
 4.66910008713603E+0001  2362
 4.67170008718967E+0001  2306
 4.67430008724332E+0001  2395
 4.67690008729696E+0001  2337
 4.67950008735061E+0001  2402
 4.68210008740425E+0001  2362
 4.68470008745790E+0001  2383
 4.68730008751154E+0001  2397
 4.68990008756518E+0001  2443
 4.69250008761883E+0001  2372
 4.69510008767247E+0001  2308
 4.69770008772612E+0001  2332
 4.70030008777976E+0001  2343
 4.70290008783340E+0001  2348
 4.70550008788705E+0001  2414
 4.70810008794069E+0001  2330
 4.71070008799434E+0001  2397
 4.71330008804798E+0001  2439
 4.71590008810163E+0001  2308
 4.71850008815527E+0001  2349
 4.72110008820891E+0001  2255
 4.72370008826256E+0001  2333
 4.72630008831620E+0001  2284
 4.72890008836985E+0001  2360
 4.73150008842349E+0001  2356
 4.73410008847713E+0001  2355
 4.73670008853078E+0001  2381
 4.73930008858442E+0001  2323
 4.74190008863807E+0001  2366
 4.74450008869171E+0001  2339
 4.74710008874536E+0001  2335
 4.74970008879900E+0001  2414
 4.75230008885264E+0001  2392
 4.75490008890629E+0001  2401
 4.75750008895993E+0001  2385
 4.76010008901358E+0001  2348
 4.76270008906722E+0001  2270
 4.76530008912086E+0001  2282
 4.76790008917451E+0001  2278
 4.77050008922815E+0001  2297
 4.77310008928180E+0001  2363
 4.77570008933544E+0001  2390
 4.77830008938909E+0001  2426
 4.78090008944273E+0001  2358
 4.78350008949637E+0001  2351
 4.78610008955002E+0001  2363
 4.78870008960366E+0001  2351
 4.79130008965731E+0001  2340
 4.79390008971095E+0001  2372
 4.79650008976460E+0001  2392
 4.79910008981824E+0001  2345
 4.80170008987188E+0001  2354
 4.80430008992553E+0001  2374
 4.80690008997917E+0001  2325
 4.80950009003282E+0001  2338
 4.81210009008646E+0001  2319
 4.81470009014010E+0001  2304
 4.81730009019375E+0001  2324
 4.81990009024739E+0001  2323
 4.82250009030104E+0001  2368
 4.82510009035468E+0001  2366
 4.82770009040833E+0001  2361
 4.83030009046197E+0001  2383
 4.83290009051561E+0001  2384
 4.83550009056926E+0001  2399
 4.83810009062290E+0001  2345
 4.84070009067655E+0001  2304
 4.84330009073019E+0001  2314
 4.84590009078383E+0001  2320
 4.84850009083748E+0001  2433
 4.85110009089112E+0001  2469
 4.85370009094477E+0001  2323
 4.85630009099841E+0001  2353
 4.85890009105206E+0001  2400
 4.86150009110570E+0001  2345
 4.86410009115934E+0001  2400
 4.86670009121299E+0001  2421
 4.86930009126663E+0001  2384
 4.87190009132028E+0001  2401
 4.87450009137392E+0001  2407
 4.87710009142756E+0001  2430
 4.87970009148121E+0001  2431
 4.88230009153485E+0001  2377
 4.88490009158850E+0001  2340
 4.88750009164214E+0001  2320
 4.89010009169579E+0001  2402
 4.89270009174943E+0001  2368
 4.89530009180307E+0001  2386
 4.89790009185672E+0001  2422
 4.90050009191036E+0001  2460
 4.90310009196401E+0001  2336
 4.90570009201765E+0001  2386
 4.90830009207129E+0001  2408
 4.91090009212494E+0001  2467
 4.91350009217858E+0001  2361
 4.91610009223223E+0001  2414
 4.91870009228587E+0001  2486
 4.92130009233952E+0001  2374
 4.92390009239316E+0001  2381
 4.92650009244680E+0001  2404
 4.92910009250045E+0001  2360
 4.93170009255409E+0001  2325
 4.93430009260774E+0001  2404
 4.93690009266138E+0001  2404
 4.93950009271502E+0001  2383
 4.94210009276867E+0001  2496
 4.94470009282231E+0001  2507
 4.94730009287596E+0001  2463
 4.94990009292960E+0001  2477
 4.95250009298325E+0001  2480
 4.95510009303689E+0001  2525
 4.95770009309053E+0001  2470
 4.96030009314418E+0001  2402
 4.96290009319782E+0001  2457
 4.96550009325147E+0001  2334
 4.96810009330511E+0001  2404
 4.97070009335876E+0001  2443
 4.97330009341240E+0001  2437
 4.97590009346604E+0001  2496
 4.97850009351969E+0001  2478
 4.98110009357333E+0001  2540
 4.98370009362698E+0001  2365
 4.98630009368062E+0001  2433
 4.98890009373426E+0001  2498
 4.99150009378791E+0001  2495
 4.99410009384155E+0001  2509
 4.99670009389520E+0001  2498
 4.99930009394884E+0001  2495
 5.00190009400249E+0001  2543
 5.00450009405613E+0001  2569
 5.00710009410977E+0001  2518
 5.00970009416342E+0001  2461
 5.01230009421706E+0001  2450
 5.01490009427071E+0001  2460
 5.01750009432435E+0001  2482
 5.02010009437799E+0001  2433
 5.02270009443164E+0001  2394
 5.02530009448528E+0001  2426
 5.02790009453893E+0001  2481
 5.03050009459257E+0001  2452
 5.03310009464622E+0001  2422
 5.03570009469986E+0001  2443
 5.03830009475350E+0001  2492
 5.04090009480715E+0001  2500
 5.04350009486079E+0001  2425
 5.04610009491444E+0001  2417
 5.04870009496808E+0001  2428
 5.05130009502172E+0001  2462
 5.05390009507537E+0001  2406
 5.05650009512901E+0001  2429
 5.05910009518266E+0001  2488
 5.06170009523630E+0001  2464
 5.06430009528995E+0001  2430
 5.06690009534359E+0001  2388
 5.06950009539723E+0001  2354
 5.07210009545088E+0001  2387
 5.07470009550452E+0001  2478
 5.07730009555817E+0001  2477
 5.07990009561181E+0001  2440
 5.08250009566545E+0001  2478
 5.08510009571910E+0001  2486
 5.08770009577274E+0001  2444
 5.09030009582639E+0001  2370
 5.09290009588003E+0001  2336
 5.09550009593368E+0001  2400
 5.09810009598732E+0001  2390
 5.10070009604096E+0001  2340
 5.10330009609461E+0001  2371
 5.10590009614825E+0001  2389
 5.10850009620190E+0001  2403
 5.11110009625554E+0001  2398
 5.11370009630919E+0001  2395
 5.11630009636283E+0001  2438
 5.11890009641647E+0001  2418
 5.12150009647012E+0001  2349
 5.12410009652376E+0001  2394
 5.12670009657741E+0001  2430
 5.12930009663105E+0001  2416
 5.13190009668469E+0001  2381
 5.13450009673834E+0001  2297
 5.13710009679198E+0001  2348
 5.13970009684563E+0001  2379
 5.14230009689927E+0001  2376
 5.14490009695292E+0001  2285
 5.14750009700656E+0001  2408
 5.15010009706020E+0001  2342
 5.15270009711385E+0001  2330
 5.15530009716749E+0001  2370
 5.15790009722114E+0001  2373
 5.16050009727478E+0001  2334
 5.16310009732842E+0001  2352
 5.16570009738207E+0001  2313
 5.16830009743571E+0001  2300
 5.17090009748936E+0001  2361
 5.17350009754300E+0001  2379
 5.17610009759665E+0001  2421
 5.17870009765029E+0001  2333
 5.18130009770393E+0001  2271
 5.18390009775758E+0001  2353
 5.18650009781122E+0001  2350
 5.18910009786487E+0001  2361
 5.19170009791851E+0001  2315
 5.19430009797215E+0001  2411
 5.19690009802580E+0001  2318
 5.19950009807944E+0001  2347
 5.20210009813309E+0001  2324
 5.20470009818673E+0001  2307
 5.20730009824038E+0001  2444
 5.20990009829402E+0001  2345
 5.21250009834766E+0001  2433
 5.21510009840131E+0001  2340
 5.21770009845495E+0001  2386
 5.22030009850860E+0001  2470
 5.22290009856224E+0001  2389
 5.22550009861588E+0001  2290
 5.22810009866953E+0001  2331
 5.23070009872317E+0001  2332
 5.23330009877682E+0001  2349
 5.23590009883046E+0001  2373
 5.23850009888411E+0001  2316
 5.24110009893775E+0001  2392
 5.24370009899139E+0001  2374
 5.24630009904504E+0001  2328
 5.24890009909868E+0001  2342
 5.25150009915233E+0001  2363
 5.25410009920597E+0001  2394
 5.25670009925961E+0001  2229
 5.25930009931326E+0001  2271
 5.26190009936690E+0001  2310
 5.26450009942055E+0001  2301
 5.26710009947419E+0001  2295
 5.26970009952784E+0001  2386
 5.27230009958148E+0001  2354
 5.27490009963512E+0001  2349
 5.27750009968877E+0001  2337
 5.28010009974241E+0001  2298
 5.28270009979606E+0001  2320
 5.28530009984970E+0001  2315
 5.28790009990335E+0001  2336
 5.29050009995699E+0001  2380
 5.29310010001063E+0001  2282
 5.29570010006428E+0001  2273
 5.29830010011792E+0001  2231
 5.30090010017157E+0001  2237
 5.30350010022521E+0001  2317
 5.30610010027885E+0001  2336
 5.30870010033250E+0001  2311
 5.31130010038614E+0001  2298
 5.31390010043979E+0001  2301
 5.31650010049343E+0001  2246
 5.31910010054708E+0001  2261
 5.32170010060072E+0001  2314
 5.32430010065436E+0001  2362
 5.32690010070801E+0001  2334
 5.32950010076165E+0001  2271
 5.33210010081530E+0001  2216
 5.33470010086894E+0001  2231
 5.33730010092258E+0001  2283
 5.33990010097623E+0001  2248
 5.34250010102987E+0001  2210
 5.34510010108352E+0001  2259
 5.34770010113716E+0001  2260
 5.35030010119081E+0001  2275
 5.35290010124445E+0001  2308
 5.35550010129809E+0001  2269
 5.35810010135174E+0001  2255
 5.36070010140538E+0001  2249
 5.36330010145903E+0001  2257
 5.36590010151267E+0001  2259
 5.36850010156631E+0001  2224
 5.37110010161996E+0001  2250
 5.37370010167360E+0001  2295
 5.37630010172725E+0001  2287
 5.37890010178089E+0001  2277
 5.38150010183454E+0001  2257
 5.38410010188818E+0001  2270
 5.38670010194182E+0001  2291
 5.38930010199547E+0001  2221
 5.39190010204911E+0001  2242
 5.39450010210276E+0001  2321
 5.39710010215640E+0001  2323
 5.39970010221004E+0001  2290
 5.40230010226369E+0001  2298
 5.40490010231733E+0001  2296
 5.40750010237098E+0001  2300
 5.41010010242462E+0001  2214
 5.41270010247827E+0001  2229
 5.41530010253191E+0001  2273
 5.41790010258555E+0001  2324
 5.42050010263920E+0001  2289
 5.42310010269284E+0001  2296
 5.42570010274649E+0001  2335
 5.42830010280013E+0001  2341
 5.43090010285378E+0001  2291
 5.43350010290742E+0001  2310
 5.43610010296106E+0001  2306
 5.43870010301471E+0001  2367
 5.44130010306835E+0001  2369
 5.44390010312200E+0001  2357
 5.44650010317564E+0001  2299
 5.44910010322928E+0001  2286
 5.45170010328293E+0001  2391
 5.45430010333657E+0001  2413
 5.45690010339022E+0001  2318
 5.45950010344386E+0001  2285
 5.46210010349751E+0001  2333
 5.46470010355115E+0001  2287
 5.46730010360479E+0001  2398
 5.46990010365844E+0001  2345
 5.47250010371208E+0001  2428
 5.47510010376573E+0001  2363
 5.47770010381937E+0001  2356
 5.48030010387301E+0001  2316
 5.48290010392666E+0001  2350
 5.48550010398030E+0001  2337
 5.48810010403395E+0001  2329
 5.49070010408759E+0001  2439
 5.49330010414124E+0001  2373
 5.49590010419488E+0001  2385
 5.49850010424852E+0001  2418
 5.50110010430217E+0001  2387
 5.50370010435581E+0001  2461
 5.50630010440946E+0001  2421
 5.50890010446310E+0001  2356
 5.51150010451674E+0001  2341
 5.51410010457039E+0001  2384
 5.51670010462403E+0001  2396
 5.51930010467768E+0001  2444
 5.52190010473132E+0001  2440
 5.52450010478497E+0001  2377
 5.52710010483861E+0001  2437
 5.52970010489225E+0001  2398
 5.53230010494590E+0001  2507
 5.53490010499954E+0001  2476
 5.53750010505319E+0001  2483
 5.54010010510683E+0001  2455
 5.54270010516047E+0001  2429
 5.54530010521412E+0001  2381
 5.54790010526776E+0001  2454
 5.55050010532141E+0001  2473
 5.55310010537505E+0001  2412
 5.55570010542870E+0001  2442
 5.55830010548234E+0001  2525
 5.56090010553598E+0001  2508
 5.56350010558963E+0001  2442
 5.56610010564327E+0001  2459
 5.56870010569692E+0001  2475
 5.57130010575056E+0001  2496
 5.57390010580420E+0001  2516
 5.57650010585785E+0001  2534
 5.57910010591149E+0001  2502
 5.58170010596514E+0001  2453
 5.58430010601878E+0001  2453
 5.58690010607243E+0001  2532
 5.58950010612607E+0001  2546
 5.59210010617971E+0001  2510
 5.59470010623336E+0001  2490
 5.59730010628700E+0001  2545
 5.59990010634065E+0001  2526
 5.60250010639429E+0001  2520
 5.60510010644794E+0001  2561
 5.60770010650158E+0001  2567
 5.61030010655522E+0001  2639
 5.61290010660887E+0001  2612
 5.61550010666251E+0001  2532
 5.61810010671616E+0001  2549
 5.62070010676980E+0001  2591
 5.62330010682344E+0001  2593
 5.62590010687709E+0001  2533
 5.62850010693073E+0001  2584
 5.63110010698438E+0001  2689
 5.63370010703802E+0001  2702
 5.63630010709167E+0001  2678
 5.63890010714531E+0001  2673
 5.64150010719895E+0001  2675
 5.64410010725260E+0001  2651
 5.64670010730624E+0001  2661
 5.64930010735989E+0001  2624
 5.65190010741353E+0001  2557
 5.65450010746717E+0001  2550
 5.65710010752082E+0001  2588
 5.65970010757446E+0001  2627
 5.66230010762811E+0001  2693
 5.66490010768175E+0001  2633
 5.66750010773540E+0001  2618
 5.67010010778904E+0001  2653
 5.67270010784268E+0001  2643
 5.67530010789633E+0001  2673
 5.67790010794997E+0001  2665
 5.68050010800362E+0001  2644
 5.68310010805726E+0001  2602
 5.68570010811090E+0001  2594
 5.68830010816455E+0001  2659
 5.69090010821819E+0001  2754
 5.69350010827184E+0001  2690
 5.69610010832548E+0001  2625
 5.69870010837913E+0001  2607
 5.70130010843277E+0001  2576
 5.70390010848641E+0001  2668
 5.70650010854006E+0001  2671
 5.70910010859370E+0001  2632
 5.71170010864735E+0001  2673
 5.71430010870099E+0001  2640
 5.71690010875463E+0001  2708
 5.71950010880828E+0001  2612
 5.72210010886192E+0001  2651
 5.72470010891557E+0001  2706
 5.72730010896921E+0001  2727
 5.72990010902286E+0001  2663
 5.73250010907650E+0001  2657
 5.73510010913014E+0001  2625
 5.73770010918379E+0001  2583
 5.74030010923743E+0001  2603
 5.74290010929108E+0001  2626
 5.74550010934472E+0001  2557
 5.74810010939837E+0001  2672
 5.75070010945201E+0001  2512
 5.75330010950565E+0001  2541
 5.75590010955930E+0001  2593
 5.75850010961294E+0001  2625
 5.76110010966659E+0001  2579
 5.76370010972023E+0001  2585
 5.76630010977387E+0001  2544
 5.76890010982752E+0001  2645
 5.77150010988116E+0001  2554
 5.77410010993481E+0001  2639
 5.77670010998845E+0001  2568
 5.77930011004210E+0001  2661
 5.78190011009574E+0001  2616
 5.78450011014938E+0001  2652
 5.78710011020303E+0001  2487
 5.78970011025667E+0001  2489
 5.79230011031032E+0001  2509
 5.79490011036396E+0001  2534
 5.79750011041760E+0001  2511
 5.80010011047125E+0001  2477
 5.80270011052489E+0001  2485
 5.80530011057854E+0001  2510
 5.80790011063218E+0001  2419
 5.81050011068583E+0001  2528
 5.81310011073947E+0001  2548
 5.81570011079311E+0001  2500
 5.81830011084676E+0001  2438
 5.82090011090040E+0001  2412
 5.82350011095405E+0001  2433
 5.82610011100769E+0001  2431
 5.82870011106133E+0001  2453
 5.83130011111498E+0001  2408
 5.83390011116862E+0001  2464
 5.83650011122227E+0001  2414
 5.83910011127591E+0001  2395
 5.84170011132956E+0001  2427
 5.84430011138320E+0001  2409
 5.84690011143684E+0001  2403
 5.84950011149049E+0001  2349
 5.85210011154413E+0001  2298
 5.85470011159778E+0001  2349
 5.85730011165142E+0001  2402
 5.85990011170506E+0001  2395
 5.86250011175871E+0001  2362
 5.86510011181235E+0001  2293
 5.86770011186600E+0001  2298
 5.87030011191964E+0001  2360
 5.87290011197329E+0001  2354
 5.87550011202693E+0001  2324
 5.87810011208057E+0001  2317
 5.88070011213422E+0001  2352
 5.88330011218786E+0001  2337
 5.88590011224151E+0001  2289
 5.88850011229515E+0001  2271
 5.89110011234879E+0001  2292
 5.89370011240244E+0001  2331
 5.89630011245608E+0001  2326
 5.89890011250973E+0001  2346
 5.90150011256337E+0001  2288
 5.90410011261702E+0001  2300
 5.90670011267066E+0001  2283
 5.90930011272430E+0001  2277
 5.91190011277795E+0001  2249
 5.91450011283159E+0001  2235
 5.91710011288524E+0001  2137
 5.91970011293888E+0001  2176
 5.92230011299253E+0001  2277
 5.92490011304617E+0001  2281
 5.92750011309981E+0001  2222
 5.93010011315346E+0001  2194
 5.93270011320710E+0001  2181
 5.93530011326075E+0001  2253
 5.93790011331439E+0001  2324
 5.94050011336803E+0001  2175
 5.94310011342168E+0001  2241
 5.94570011347532E+0001  2188
 5.94830011352897E+0001  2213
 5.95090011358261E+0001  2190
 5.95350011363626E+0001  2175
 5.95610011368990E+0001  2165
 5.95870011374354E+0001  2242
 5.96130011379719E+0001  2224
 5.96390011385083E+0001  2172
 5.96650011390448E+0001  2215
 5.96910011395812E+0001  2242
 5.97170011401176E+0001  2200
 5.97430011406541E+0001  2169
 5.97690011411905E+0001  2178
 5.97950011417270E+0001  2153
 5.98210011422634E+0001  2142
 5.98470011427999E+0001  2135
 5.98730011433363E+0001  2097
 5.98990011438727E+0001  2144
 5.99250011444092E+0001  2126
 5.99510011449456E+0001  2186
 5.99770011454821E+0001  2117
 6.00030011460185E+0001  2189
 6.00290011465549E+0001  2247
 6.00550011470914E+0001  2223
 6.00810011476278E+0001  2156
 6.01070011481643E+0001  2148
 6.01330011487007E+0001  2158
 6.01590011492372E+0001  2129
 6.01850011497736E+0001  2118
 6.02110011503100E+0001  2172
 6.02370011508465E+0001  2143
 6.02630011513829E+0001  2177
 6.02890011519194E+0001  2204
 6.03150011524558E+0001  2180
 6.03410011529922E+0001  2173
 6.03670011535287E+0001  2128
 6.03930011540651E+0001  2118
 6.04190011546016E+0001  2174
 6.04450011551380E+0001  2145
 6.04710011556745E+0001  2112
 6.04970011562109E+0001  2185
 6.05230011567473E+0001  2174
 6.05490011572838E+0001  2154
 6.05750011578202E+0001  2152
 6.06010011583567E+0001  2141
 6.06270011588931E+0001  2153
 6.06530011594296E+0001  2130
 6.06790011599660E+0001  2134
 6.07050011605024E+0001  2151
 6.07310011610389E+0001  2126
 6.07570011615753E+0001  2181
 6.07830011621118E+0001  2192
 6.08090011626482E+0001  2171
 6.08350011631846E+0001  2164
 6.08610011637211E+0001  2164
 6.08870011642575E+0001  2148
 6.09130011647940E+0001  2152
 6.09390011653304E+0001  2188
 6.09650011658669E+0001  2153
 6.09910011664033E+0001  2151
 6.10170011669397E+0001  2114
 6.10430011674762E+0001  2095
 6.10690011680126E+0001  2143
 6.10950011685491E+0001  2168
 6.11210011690855E+0001  2169
 6.11470011696219E+0001  2201
 6.11730011701584E+0001  2193
 6.11990011706948E+0001  2150
 6.12250011712313E+0001  2165
 6.12510011717677E+0001  2128
 6.12770011723042E+0001  2146
 6.13030011728406E+0001  2197
 6.13290011733770E+0001  2205
 6.13550011739135E+0001  2170
 6.13810011744499E+0001  2164
 6.14070011749864E+0001  2234
 6.14330011755228E+0001  2295
 6.14590011760592E+0001  2315
 6.14850011765957E+0001  2258
 6.15110011771321E+0001  2305
 6.15370011776686E+0001  2394
 6.15630011782050E+0001  2386
 6.15890011787415E+0001  2406
 6.16150011792779E+0001  2460
 6.16410011798143E+0001  2490
 6.16670011803508E+0001  2505
 6.16930011808872E+0001  2578
 6.17190011814237E+0001  2629
 6.17450011819601E+0001  2617
 6.17710011824965E+0001  2631
 6.17970011830330E+0001  2715
 6.18230011835694E+0001  2773
 6.18490011841059E+0001  2835
 6.18750011846423E+0001  2878
 6.19010011851788E+0001  2954
 6.19270011857152E+0001  2967
 6.19530011862516E+0001  2922
 6.19790011867881E+0001  3024
 6.20050011873245E+0001  3067
 6.20310011878610E+0001  3188
 6.20570011883974E+0001  3209
 6.20830011889338E+0001  3202
 6.21090011894703E+0001  3275
 6.21350011900067E+0001  3311
 6.21610011905432E+0001  3414
 6.21870011910796E+0001  3408
 6.22130011916161E+0001  3491
 6.22390011921525E+0001  3614
 6.22650011926889E+0001  3585
 6.22910011932254E+0001  3542
 6.23170011937618E+0001  3528
 6.23430011942983E+0001  3635
 6.23690011948347E+0001  3638
 6.23950011953712E+0001  3628
 6.24210011959076E+0001  3615
 6.24470011964440E+0001  3656
 6.24730011969805E+0001  3608
 6.24990011975169E+0001  3543
 6.25250011980534E+0001  3485
 6.25510011985898E+0001  3515
 6.25770011991262E+0001  3455
 6.26030011996627E+0001  3441
 6.26290012001991E+0001  3248
 6.26550012007356E+0001  3177
 6.26810012012720E+0001  3172
 6.27070012018085E+0001  3129
 6.27330012023449E+0001  2992
 6.27590012028813E+0001  3003
 6.27850012034178E+0001  2998
 6.28110012039542E+0001  2856
 6.28370012044907E+0001  2803
 6.28630012050271E+0001  2722
 6.28890012055635E+0001  2695
 6.29150012061000E+0001  2654
 6.29410012066364E+0001  2638
 6.29670012071729E+0001  2578
 6.29930012077093E+0001  2412
 6.30190012082458E+0001  2438
 6.30450012087822E+0001  2445
 6.30710012093186E+0001  2387
 6.30970012098551E+0001  2408
 6.31230012103915E+0001  2397
 6.31490012109280E+0001  2335
 6.31750012114644E+0001  2295
 6.32010012120008E+0001  2232
 6.32270012125373E+0001  2309
 6.32530012130737E+0001  2271
 6.32790012136102E+0001  2277
 6.33050012141466E+0001  2298
 6.33310012146831E+0001  2301
 6.33570012152195E+0001  2315
 6.33830012157559E+0001  2273
 6.34090012162924E+0001  2264
 6.34350012168288E+0001  2231
 6.34610012173653E+0001  2275
 6.34870012179017E+0001  2276
 6.35130012184381E+0001  2237
 6.35390012189746E+0001  2269
 6.35650012195110E+0001  2259
 6.35910012200475E+0001  2256
 6.36170012205839E+0001  2291
 6.36430012211204E+0001  2293
 6.36690012216568E+0001  2222
 6.36950012221932E+0001  2215
 6.37210012227297E+0001  2264
 6.37470012232661E+0001  2235
 6.37730012238026E+0001  2165
 6.37990012243390E+0001  2105
 6.38250012248755E+0001  2136
 6.38510012254119E+0001  2210
 6.38770012259483E+0001  2201
 6.39030012264848E+0001  2164
 6.39290012270212E+0001  2131
 6.39550012275577E+0001  2125
 6.39810012280941E+0001  2145
 6.40070012286305E+0001  2184
 6.40330012291670E+0001  2228
 6.40590012297034E+0001  2218
 6.40850012302399E+0001  2228
 6.41110012307763E+0001  2252
 6.41370012313128E+0001  2165
 6.41630012318492E+0001  2115
 6.41890012323856E+0001  2176
 6.42150012329221E+0001  2184
 6.42410012334585E+0001  2190
 6.42670012339950E+0001  2159
 6.42930012345314E+0001  2147
 6.43190012350678E+0001  2181
 6.43450012356043E+0001  2131
 6.43710012361407E+0001  2142
 6.43970012366772E+0001  2131
 6.44230012372136E+0001  2137
 6.44490012377501E+0001  2152
 6.44750012382865E+0001  2116
 6.45010012388229E+0001  2097
 6.45270012393594E+0001  2160
 6.45530012398958E+0001  2178
 6.45790012404323E+0001  2139
 6.46050012409687E+0001  2180
 6.46310012415051E+0001  2183
 6.46570012420416E+0001  2137
 6.46830012425780E+0001  2130
 6.47090012431145E+0001  2088
 6.47350012436509E+0001  2094
 6.47610012441874E+0001  2130
 6.47870012447238E+0001  2066
 6.48130012452602E+0001  2131
 6.48390012457967E+0001  2100
 6.48650012463331E+0001  2050
 6.48910012468696E+0001  2070
 6.49170012474060E+0001  2092
 6.49430012479424E+0001  2041
 6.49690012484789E+0001  2099
 6.49950012490153E+0001  2081
 6.50210012495518E+0001  2006
 6.50470012500882E+0001  2015
 6.50730012506247E+0001  2072
 6.50990012511611E+0001  2056
 6.51250012516975E+0001  2024
 6.51510012522340E+0001  2077
 6.51770012527704E+0001  2039
 6.52030012533069E+0001  2092
 6.52290012538433E+0001  1991
 6.52550012543797E+0001  2017
 6.52810012549162E+0001  2081
 6.53070012554526E+0001  2094
 6.53330012559891E+0001  2063
 6.53590012565255E+0001  2019
 6.53850012570620E+0001  1986
 6.54110012575984E+0001  2054
 6.54370012581348E+0001  2121
 6.54630012586713E+0001  2136
 6.54890012592077E+0001  2069
 6.55150012597442E+0001  2060
 6.55410012602806E+0001  2068
 6.55670012608171E+0001  2081
 6.55930012613535E+0001  2062
 6.56190012618899E+0001  2131
 6.56450012624264E+0001  2017
 6.56710012629628E+0001  2088
 6.56970012634993E+0001  1983
 6.57230012640357E+0001  1967
 6.57490012645721E+0001  2004
 6.57750012651086E+0001  2035
 6.58010012656450E+0001  2019
 6.58270012661815E+0001  2017
 6.58530012667179E+0001  2026
 6.58790012672544E+0001  2047
 6.59050012677908E+0001  2023
 6.59310012683272E+0001  1956
 6.59570012688637E+0001  2011
 6.59830012694001E+0001  2028
 6.60090012699366E+0001  2008
 6.60350012704730E+0001  1945
 6.60610012710094E+0001  2032
 6.60870012715459E+0001  2017
 6.61130012720823E+0001  2054
 6.61390012726188E+0001  2038
 6.61650012731552E+0001  2101
 6.61910012736917E+0001  2100
 6.62170012742281E+0001  2038
 6.62430012747645E+0001  2085
 6.62690012753010E+0001  2094
 6.62950012758374E+0001  2086
 6.63210012763739E+0001  2032
 6.63470012769103E+0001  2039
 6.63730012774467E+0001  2072
 6.63990012779832E+0001  2115
 6.64250012785196E+0001  2097
 6.64510012790561E+0001  2064
 6.64770012795925E+0001  2073
 6.65030012801290E+0001  2049
 6.65290012806654E+0001  2028
 6.65550012812018E+0001  2059
 6.65810012817383E+0001  2080
 6.66070012822747E+0001  2068
 6.66330012828112E+0001  2060
 6.66590012833476E+0001  2050
 6.66850012838840E+0001  2081
 6.67110012844205E+0001  2099
 6.67370012849569E+0001  2065
 6.67630012854934E+0001  2094
 6.67890012860298E+0001  2114
 6.68150012865663E+0001  2107
 6.68410012871027E+0001  2129
 6.68670012876391E+0001  2109
 6.68930012881756E+0001  2047
 6.69190012887120E+0001  2075
 6.69450012892485E+0001  2089
 6.69710012897849E+0001  2106
 6.69970012903214E+0001  2075
 6.70230012908578E+0001  2105
 6.70490012913942E+0001  2056
 6.70750012919307E+0001  2028
 6.71010012924671E+0001  2078
 6.71270012930036E+0001  2059
 6.71530012935400E+0001  2039
 6.71790012940764E+0001  2053
 6.72050012946129E+0001  2043
 6.72310012951493E+0001  2039
 6.72570012956858E+0001  2024
 6.72830012962222E+0001  2080
 6.73090012967587E+0001  2055
 6.73350012972951E+0001  2038
 6.73610012978315E+0001  2009
 6.73870012983680E+0001  2089
 6.74130012989044E+0001  2168
 6.74390012994409E+0001  2073
 6.74650012999773E+0001  2082
 6.74910013005137E+0001  2150
 6.75170013010502E+0001  2067
 6.75430013015866E+0001  2002
 6.75690013021231E+0001  2064
 6.75950013026595E+0001  2069
 6.76210013031960E+0001  2032
 6.76470013037324E+0001  2070
 6.76730013042688E+0001  2074
 6.76990013048053E+0001  2022
 6.77250013053417E+0001  1967
 6.77510013058782E+0001  2068
 6.77770013064146E+0001  2038
 6.78030013069510E+0001  2140
 6.78290013074875E+0001  2171
 6.78550013080239E+0001  2040
 6.78810013085604E+0001  2080
 6.79070013090968E+0001  2157
 6.79330013096333E+0001  2084
 6.79590013101697E+0001  2123
 6.79850013107061E+0001  2014
 6.80110013112426E+0001  2036
 6.80370013117790E+0001  2065
 6.80630013123155E+0001  1999
 6.80890013128519E+0001  2019
 6.81150013133883E+0001  2060
 6.81410013139248E+0001  2082
 6.81670013144612E+0001  2091
 6.81930013149977E+0001  2156
 6.82190013155341E+0001  2100
 6.82450013160706E+0001  2073
 6.82710013166070E+0001  2083
 6.82970013171434E+0001  2075
 6.83230013176799E+0001  2053
 6.83490013182163E+0001  2047
 6.83750013187528E+0001  2137
 6.84010013192892E+0001  2112
 6.84270013198256E+0001  2051
 6.84530013203621E+0001  2101
 6.84790013208985E+0001  2071
 6.85050013214350E+0001  2040
 6.85310013219714E+0001  2035
 6.85570013225079E+0001  2075
 6.85830013230443E+0001  2082
 6.86090013235807E+0001  2080
 6.86350013241172E+0001  2089
 6.86610013246536E+0001  2071
 6.86870013251901E+0001  2028
 6.87130013257265E+0001  2052
 6.87390013262630E+0001  2064
 6.87650013267994E+0001  2064
 6.87910013273358E+0001  2107
 6.88170013278723E+0001  2001
 6.88430013284087E+0001  2045
 6.88690013289452E+0001  2085
 6.88950013294816E+0001  2012
 6.89210013300180E+0001  2028
 6.89470013305545E+0001  2104
 6.89730013310909E+0001  2111
 6.89990013316274E+0001  2075
 6.90250013321638E+0001  2031
 6.90510013327003E+0001  2028
 6.90770013332367E+0001  2093
 6.91030013337731E+0001  2111
 6.91290013343096E+0001  2096
 6.91550013348460E+0001  2122
 6.91810013353825E+0001  2113
 6.92070013359189E+0001  2083
 6.92330013364553E+0001  2121
 6.92590013369918E+0001  2079
 6.92850013375282E+0001  2010
 6.93110013380647E+0001  2033
 6.93370013386011E+0001  2040
 6.93630013391376E+0001  2027
 6.93890013396740E+0001  2046
 6.94150013402104E+0001  2104
 6.94410013407469E+0001  2079
 6.94670013412833E+0001  2067
 6.94930013418198E+0001  2077
 6.95190013423562E+0001  2093
 6.95450013428926E+0001  2114
 6.95710013434291E+0001  2077
 6.95970013439655E+0001  2067
 6.96230013445020E+0001  2148
 6.96490013450384E+0001  2026
 6.96750013455749E+0001  2018
 6.97010013461113E+0001  2081
 6.97270013466477E+0001  2053
 6.97530013471842E+0001  2019
 6.97790013477206E+0001  2015
 6.98050013482571E+0001  2046
 6.98310013487935E+0001  2127
 6.98570013493299E+0001  2083
 6.98830013498664E+0001  2047
 6.99090013504028E+0001  2067
 6.99350013509393E+0001  2065
 6.99610013514757E+0001  2039
 6.99870013520122E+0001  2065
 7.00130013525486E+0001  2062
 7.00390013530850E+0001  2059
 7.00650013536215E+0001  2058
 7.00910013541579E+0001  2041
 7.01170013546944E+0001  2023
 7.01430013552308E+0001  2075
 7.01690013557673E+0001  2133
 7.01950013563037E+0001  2080
 7.02210013568401E+0001  2096
 7.02470013573766E+0001  2086
 7.02730013579130E+0001  2082
 7.02990013584495E+0001  2126
 7.03250013589859E+0001  2139
 7.03510013595223E+0001  2148
 7.03770013600588E+0001  2012
 7.04030013605952E+0001  2021
 7.04290013611317E+0001  2140
 7.04550013616681E+0001  2044
 7.04810013622046E+0001  2044
 7.05070013627410E+0001  2133
 7.05330013632774E+0001  2112
 7.05590013638139E+0001  2089
 7.05850013643503E+0001  2020
 7.06110013648868E+0001  2037
 7.06370013654232E+0001  2025
 7.06630013659596E+0001  1992
 7.06890013664961E+0001  2030
 7.07150013670325E+0001  2082
 7.07410013675690E+0001  2111
 7.07670013681054E+0001  2032
 7.07930013686419E+0001  2057
 7.08190013691783E+0001  2064
 7.08450013697147E+0001  2088
 7.08710013702512E+0001  2049
 7.08970013707876E+0001  1986
 7.09230013713241E+0001  2085
 7.09490013718605E+0001  2043
 7.09750013723969E+0001  2120
 7.10010013729334E+0001  2091
 7.10270013734698E+0001  2082
 7.10530013740063E+0001  2044
 7.10790013745427E+0001  2102
 7.11050013750792E+0001  2066
 7.11310013756156E+0001  2068
 7.11570013761520E+0001  2053
 7.11830013766885E+0001  2035
 7.12090013772249E+0001  2117
 7.12350013777614E+0001  2075
 7.12610013782978E+0001  2030
 7.12870013788342E+0001  2047
 7.13130013793707E+0001  2037
 7.13390013799071E+0001  2038
 7.13650013804436E+0001  2058
 7.13910013809800E+0001  1952
 7.14170013815165E+0001  1963
 7.14430013820529E+0001  2039
 7.14690013825893E+0001  2042
 7.14950013831258E+0001  2000
 7.15210013836622E+0001  2078
 7.15470013841987E+0001  2048
 7.15730013847351E+0001  1966
 7.15990013852715E+0001  2004
 7.16250013858080E+0001  2054
 7.16510013863444E+0001  2065
 7.16770013868809E+0001  2085
 7.17030013874173E+0001  2101
 7.17290013879538E+0001  2082
 7.17550013884902E+0001  2076
 7.17810013890266E+0001  2016
 7.18070013895631E+0001  1975
 7.18330013900995E+0001  1974
 7.18590013906360E+0001  1977
 7.18850013911724E+0001  1982
 7.19110013917089E+0001  1975
 7.19370013922453E+0001  2030
 7.19630013927817E+0001  2007
 7.19890013933182E+0001  1953
 7.20150013938546E+0001  1987
 7.20410013943911E+0001  2014
 7.20670013949275E+0001  2033
 7.20930013954639E+0001  2002
 7.21190013960004E+0001  2019
 7.21450013965368E+0001  2005
 7.21710013970733E+0001  1987
 7.21970013976097E+0001  2077
 7.22230013981462E+0001  2051
 7.22490013986826E+0001  1988
 7.22750013992190E+0001  1982
 7.23010013997555E+0001  1969
 7.23270014002919E+0001  1964
 7.23530014008284E+0001  1961
 7.23790014013648E+0001  2006
 7.24050014019012E+0001  1974
 7.24310014024377E+0001  2001
 7.24570014029741E+0001  1983
 7.24830014035106E+0001  2025
 7.25090014040470E+0001  2019
 7.25350014045835E+0001  2071
 7.25610014051199E+0001  1977
 7.25870014056563E+0001  2028
 7.26130014061928E+0001  1973
 7.26390014067292E+0001  1918
 7.26650014072657E+0001  1965
 7.26910014078021E+0001  1989
 7.27170014083385E+0001  1962
 7.27430014088750E+0001  2034
 7.27690014094114E+0001  1965
 7.27950014099479E+0001  1961
 7.28210014104843E+0001  2001
 7.28470014110208E+0001  2022
 7.28730014115572E+0001  1987
 7.28990014120936E+0001  1956
 7.29250014126301E+0001  2028
 7.29510014131665E+0001  1985
 7.29770014137030E+0001  1988
 7.30030014142394E+0001  2013
 7.30290014147758E+0001  1994
 7.30550014153123E+0001  1929
 7.30810014158487E+0001  2000
 7.31070014163852E+0001  2050
 7.31330014169216E+0001  2069
 7.31590014174581E+0001  1995
 7.31850014179945E+0001  1946
 7.32110014185309E+0001  2059
 7.32370014190674E+0001  2075
 7.32630014196038E+0001  2007
 7.32890014201403E+0001  2018
 7.33150014206767E+0001  1974
 7.33410014212132E+0001  2042
 7.33670014217496E+0001  2013
 7.33930014222860E+0001  2013
 7.34190014228225E+0001  1990
 7.34450014233589E+0001  2029
 7.34710014238954E+0001  2013
 7.34970014244318E+0001  2039
 7.35230014249682E+0001  2051
 7.35490014255047E+0001  2018
 7.35750014260411E+0001  1951
 7.36010014265776E+0001  2033
 7.36270014271140E+0001  1987
 7.36530014276505E+0001  2059
 7.36790014281869E+0001  2010
 7.37050014287233E+0001  2079
 7.37310014292598E+0001  2003
 7.37570014297962E+0001  2013
 7.37830014303327E+0001  2041
 7.38090014308691E+0001  2010
 7.38350014314055E+0001  2073
 7.38610014319420E+0001  2081
 7.38870014324784E+0001  2103
 7.39130014330149E+0001  2043
 7.39390014335513E+0001  2030
 7.39650014340878E+0001  2085
 7.39910014346242E+0001  2154
 7.40170014351606E+0001  2090
 7.40430014356971E+0001  2107
 7.40690014362335E+0001  2091
 7.40950014367700E+0001  2072
 7.41210014373064E+0001  2046
 7.41470014378428E+0001  2103
 7.41730014383793E+0001  2187
 7.41990014389157E+0001  2176
 7.42250014394522E+0001  2120
 7.42510014399886E+0001  2129
 7.42770014405251E+0001  2161
 7.43030014410615E+0001  2223
 7.43290014415979E+0001  2178
 7.43550014421344E+0001  2114
 7.43810014426708E+0001  2125
 7.44070014432073E+0001  2182
 7.44330014437437E+0001  2216
 7.44590014442801E+0001  2239
 7.44850014448166E+0001  2271
 7.45110014453530E+0001  2229
 7.45370014458895E+0001  2170
 7.45630014464259E+0001  2154
 7.45890014469624E+0001  2179
 7.46150014474988E+0001  2181
 7.46410014480352E+0001  2172
 7.46670014485717E+0001  2202
 7.46930014491081E+0001  2215
 7.47190014496446E+0001  2223
 7.47450014501810E+0001  2265
 7.47710014507174E+0001  2261
 7.47970014512539E+0001  2262
 7.48230014517903E+0001  2207
 7.48490014523268E+0001  2127
 7.48750014528632E+0001  2140
 7.49010014533997E+0001  2185
 7.49270014539361E+0001  2196
 7.49530014544725E+0001  2208
 7.49790014550090E+0001  2178
 7.50050014555454E+0001  2234
 7.50310014560819E+0001  2216
 7.50570014566183E+0001  2184
 7.50830014571548E+0001  2193
 7.51090014576912E+0001  2140
 7.51350014582276E+0001  2173
 7.51610014587641E+0001  2140
 7.51870014593005E+0001  2112
 7.52130014598370E+0001  2145
 7.52390014603734E+0001  2200
 7.52650014609098E+0001  2140
 7.52910014614463E+0001  2140
 7.53170014619827E+0001  2088
 7.53430014625192E+0001  2101
 7.53690014630556E+0001  2090
 7.53950014635921E+0001  2087
 7.54210014641285E+0001  2092
 7.54470014646649E+0001  2131
 7.54730014652014E+0001  2056
 7.54990014657378E+0001  2125
 7.55250014662743E+0001  2082
 7.55510014668107E+0001  2043
 7.55770014673471E+0001  2101
 7.56030014678836E+0001  2005
 7.56290014684200E+0001  2065
 7.56550014689565E+0001  2053
 7.56810014694929E+0001  2017
 7.57070014700294E+0001  2059
 7.57330014705658E+0001  2066
 7.57590014711022E+0001  2138
 7.57850014716387E+0001  2072
 7.58110014721751E+0001  2000
 7.58370014727116E+0001  2126
 7.58630014732480E+0001  2116
 7.58890014737844E+0001  2159
 7.59150014743209E+0001  2044
 7.59410014748573E+0001  2044
 7.59670014753938E+0001  2043
 7.59930014759302E+0001  2052
 7.60190014764667E+0001  2010
 7.60450014770031E+0001  2040
 7.60710014775395E+0001  1986
 7.60970014780760E+0001  2048
 7.61230014786124E+0001  2029
 7.61490014791489E+0001  2113
 7.61750014796853E+0001  2070
 7.62010014802217E+0001  2031
 7.62270014807582E+0001  2045
 7.62530014812946E+0001  1968
 7.62790014818311E+0001  2065
 7.63050014823675E+0001  2002
 7.63310014829040E+0001  2096
 7.63570014834404E+0001  2089
 7.63830014839768E+0001  2143
 7.64090014845133E+0001  2091
 7.64350014850497E+0001  2044
 7.64610014855862E+0001  2054
 7.64870014861226E+0001  2087
 7.65130014866591E+0001  2042
 7.65390014871955E+0001  2076
 7.65650014877319E+0001  2025
 7.65910014882684E+0001  2034
 7.66170014888048E+0001  1997
 7.66430014893413E+0001  2020
 7.66690014898777E+0001  2083
 7.66950014904141E+0001  2072
 7.67210014909506E+0001  2045
 7.67470014914870E+0001  2118
 7.67730014920235E+0001  2072
 7.67990014925599E+0001  2060
 7.68250014930964E+0001  2060
 7.68510014936328E+0001  2050
 7.68770014941692E+0001  2062
 7.69030014947057E+0001  2058
 7.69290014952421E+0001  2061
 7.69550014957786E+0001  2057
 7.69810014963150E+0001  2083
 7.70070014968514E+0001  2089
 7.70330014973879E+0001  2020
 7.70590014979243E+0001  2032
 7.70850014984608E+0001  2075
 7.71110014989972E+0001  2057
 7.71370014995337E+0001  2076
 7.71630015000701E+0001  2076
 7.71890015006065E+0001  2050
 7.72150015011430E+0001  2093
 7.72410015016794E+0001  2102
 7.72670015022159E+0001  2060
 7.72930015027523E+0001  2071
 7.73190015032887E+0001  2057
 7.73450015038252E+0001  2036
 7.73710015043616E+0001  2076
 7.73970015048981E+0001  2074
 7.74230015054345E+0001  2041
 7.74490015059710E+0001  2038
 7.74750015065074E+0001  2068
 7.75010015070438E+0001  2070
 7.75270015075803E+0001  2079
 7.75530015081167E+0001  2059
 7.75790015086532E+0001  2051
 7.76050015091896E+0001  2046
 7.76310015097260E+0001  2102
 7.76570015102625E+0001  2042
 7.76830015107989E+0001  2068
 7.77090015113354E+0001  2049
 7.77350015118718E+0001  2096
 7.77610015124083E+0001  2065
 7.77870015129447E+0001  2028
 7.78130015134811E+0001  2006
 7.78390015140176E+0001  2051
 7.78650015145540E+0001  2053
 7.78910015150905E+0001  1997
 7.79170015156269E+0001  2022
 7.79430015161633E+0001  2039
 7.79690015166998E+0001  2097
 7.79950015172362E+0001  2033
 7.80210015177727E+0001  2124
 7.80470015183091E+0001  2005
 7.80730015188456E+0001  2041
 7.80990015193820E+0001  2032
 7.81250015199184E+0001  2038
 7.81510015204549E+0001  2064
 7.81770015209913E+0001  2036
 7.82030015215278E+0001  2015
 7.82290015220642E+0001  2078
 7.82550015226007E+0001  2011
 7.82810015231371E+0001  2065
 7.83070015236735E+0001  1982
 7.83330015242100E+0001  2115
 7.83590015247464E+0001  2056
 7.83850015252829E+0001  2075
 7.84110015258193E+0001  2076
 7.84370015263557E+0001  2160
 7.84630015268922E+0001  2032
 7.84890015274286E+0001  2056
 7.85150015279651E+0001  2042
 7.85410015285015E+0001  2049
 7.85670015290380E+0001  2080
 7.85930015295744E+0001  2017
 7.86190015301108E+0001  2060
 7.86450015306473E+0001  2073
 7.86710015311837E+0001  1948
 7.86970015317202E+0001  2051
 7.87230015322566E+0001  2061
 7.87490015327930E+0001  2048
 7.87750015333295E+0001  2032
 7.88010015338659E+0001  2050
 7.88270015344024E+0001  1972
 7.88530015349388E+0001  2049
 7.88790015354753E+0001  2058
 7.89050015360117E+0001  2090
 7.89310015365481E+0001  2049
 7.89570015370846E+0001  1999
 7.89830015376210E+0001  2009
 7.90090015381575E+0001  2063
 7.90350015386939E+0001  2025
 7.90610015392303E+0001  1996
 7.90870015397668E+0001  1986
 7.91130015403032E+0001  2075
 7.91390015408397E+0001  2098
 7.91650015413761E+0001  2001
 7.91910015419126E+0001  2028
 7.92170015424490E+0001  2020
 7.92430015429854E+0001  1982
 7.92690015435219E+0001  1988
 7.92950015440583E+0001  1993
 7.93210015445948E+0001  2025
 7.93470015451312E+0001  1948
 7.93730015456676E+0001  1929
 7.93990015462041E+0001  1948
 7.94250015467405E+0001  1908
 7.94510015472770E+0001  1935
 7.94770015478134E+0001  1974
 7.95030015483499E+0001  1929
 7.95290015488863E+0001  1919
 7.95550015494227E+0001  1946
 7.95810015499592E+0001  1901
 7.96070015504956E+0001  1903
 7.96330015510321E+0001  1917
 7.96590015515685E+0001  1914
 7.96850015521050E+0001  1968
 7.97110015526414E+0001  1990
 7.97370015531778E+0001  1938
 7.97630015537143E+0001  1889
 7.97890015542507E+0001  1920
 7.98150015547872E+0001  1928
 7.98410015553236E+0001  1892
 7.98670015558600E+0001  1909

