#Executed at: 2018-11-13 00:54:13.173224
#Loaded File	 = ../rawdata/DD172_6_FCW_100OE.DAT
#Rescale Factor	 = 0.02443164854405194
#[[Data]]
#T/K	M/kAm-1	sM/kAm-1	M_raw/memu	sM_raw/memu
10.0051603	4.15622482493957	0.008541414154618527	170.11642982034599	0.349604495137435
10.0130196	4.160746183994512	0.00872117156738646	170.301491382884	0.356962058931946
10.5423088	4.149312920445783	0.0075304816958897845	169.83352199767802	0.308226507200765
11.0184898	4.151615354467911	0.008365011681069503	169.92776181199002	0.342384250738824
11.5287514	4.145508458507682	0.0073735217342495345	169.67780340458998	0.301802054861528
12.0056334	4.148619415240087	0.0088242861467585	169.805136471239	0.361182591950261
12.5170965	4.144695659922315	0.007410368238909467	169.644535138476	0.303310201337747
13.0476351	4.151792825362868	0.009208644526431631	169.935025787429	0.376914579048066
13.5039434	4.144659651333884	0.007848291821077597	169.643061288344	0.32123463985357303
14.0201254	4.1450508801526444	0.007861292447663967	169.659074486064	0.32176676221784695
14.5610781	4.161696896101329	0.008149647221433702	170.34040452069797	0.33356927211601495
15.0106859	4.154655094702178	0.008508382316450293	170.052179950569	0.34825248493195604
15.532443	4.159352890097609	0.008826025026906069	170.244463143697	0.36125376521327
16.0213223	4.149563144109319	0.008687201640653865	169.84376378153	0.355571652276769
16.5189323	4.148159997741863	0.007194186089620854	169.786332275632	0.294461754254906
17.0051193	4.155023620677883	0.006465725190782364	170.06726390919098	0.264645473232157
17.5181885	4.146393941341262	0.00801040025053762	169.714046674543	0.32786982164115197
18.0209427	4.151816494295681	0.007785167359029314	169.93599456907998	0.318650923002274
18.5459881	4.145733307458305	0.010034288626000257	169.68700658833	0.41070861869626796
19.0205736	4.145307990861529	0.007772178360969572	169.66959816024098	0.31811927659960404
19.5057869	4.143646529475742	0.009563136551923536	169.601593687158	0.39142412083574896
20.7192917	4.142673506795629	0.008887669427079132	169.56176736605	0.363776902367192
21.0652332	4.145288617293274	0.00892625332352949	169.66880519008097	0.365356161187193
21.5175266	4.154620259194147	0.00903577206058024	170.050754115224	0.36983881968865595
22.0173645	4.150180158796045	0.0075935553416571575	169.869018511501	0.310808144115427
22.5496311	4.141619292234867	0.00875308237654376	169.518617819311	0.358268184840714
23.0380173	4.145954929837324	0.008780300234842855	169.696077706827	0.359382225845766
23.5066433	4.145643732636851	0.007215994552636079	169.6833402446	0.295354385915676
24.046339	4.143975752627989	0.007054959225444581	169.615068960906	0.288763126758475
24.5325489	4.145412345654335	0.0076366032934335245	169.673869455836	0.312570119026729
25.0396729	4.13955694839659	0.009066042421863756	169.434205020291	0.371077801218246
25.502882	4.137904210068617	0.008492488827165587	169.366557586472	0.34760195620254797
26.0532417	4.146372912583032	0.007808302725358263	169.71318595660202	0.319597865501354
26.5503254	4.14518756348523	0.008604719245448773	169.664669005498	0.35219560521812
27.0349255	4.146616837316174	0.00836865809495052	169.723169921978	0.342533500343264
27.5247059	4.145749174327979	0.006949120691775611	169.687656027505	0.284431100883179
28.0489731	4.144827098285569	0.008604185041899873	169.64991497860498	0.352173739990813
28.5542259	4.147501811729443	0.007228978259042427	169.759392382025	0.295885815728238
29.0602818	4.144621983422448	0.006961989619185137	169.641519521264	0.28495783273208897
29.5553675	4.151363522176063	0.008102606782909734	169.91745418615	0.33164388265900996
30.003191	4.1451533290422224	0.006609562663417811	169.663267772055	0.270532815315361
31.1381168	4.146919138416624	0.006748039619626606	169.735543262234	0.276200748691167
31.517189	4.1464654173231	0.006746728482653139	169.71697222341498	0.27614708317731096
32.0268288	4.139030921428773	0.008296233903859564	169.412674464673	0.339569140776599
32.5474396	4.14375163903637	0.006590576086201124	169.60589587579	0.269755684898539
33.0235252	4.1351963187100305	0.006627028179215828	169.25572219385802	0.27124768790230597
33.5145988	4.13910682469928	0.007683648672188305	169.415781224758	0.314495710689934
34.0489578	4.143142167447178	0.007245689809815513	169.580949888699	0.2965698281371
34.5334435	4.138926843952037	0.00800572927452526	169.40841451976797	0.32767863617923204
35.0549545	4.131476091891778	0.007423920048183367	169.103451387754	0.303864883894246
35.5435333	4.135279757224176	0.00814288237452376	169.259137375359	0.333292383436246
36.0244255	4.131761835494136	0.009275894712185895	169.11514702105697	0.37966716390262495
36.5343323	4.138705899147604	0.008462214942420353	169.399371134749	0.34636283045584904
37.0174561	4.137032804943035	0.008707283564245416	169.330890524382	0.35639361578673606
37.5024033	4.140725357860959	0.008894389464156324	169.482028623445	0.364051956957351
38.0185051	4.138691855020151	0.006920867183859845	169.39879630135502	0.28327467020414304
38.56461335	4.136622908963642	0.007942591602375225	169.31411327013103	0.325094378631642
39.00444605	4.132913185182661	0.00831543152683542	169.16227235877	0.34035490940540203
39.5085869	4.137925226461452	0.008537755693726034	169.36741779829097	0.34945475244258994
40.0519676	4.138678820576945	0.008617450885167308	169.398262794859	0.35271671781089403
40.5635071	4.131831242752302	0.0080792637522263	169.117987896	0.33068844035059003
41.5251389	4.136718729583714	0.00889389484530089	169.318035257626	0.364031711952003
42.0405731	4.134274074222839	0.008682465552936412	169.217974250426	0.35537780175911304
42.553688	4.134742333509947	0.0077082909466175955	169.23714034502103	0.315504331716258
43.0209179	4.137436960872007	0.008690960759660351	169.347432835403	0.35572551496023497
43.5005226	4.133968101965024	0.008028961955789936	169.205450647802	0.328629561828919
44.0592537	4.133782184148467	0.009020741726601085	169.197840935497	0.369223620351941
44.5041504	4.135493115808312	0.007868915163646005	169.26787025246102	0.322078763922042
45.0131645	4.127852621463532	0.008050380872322504	168.955140870692	0.329506249150855
45.5161209	4.128029937750646	0.00852643452184927	168.962398517952	0.34899137102744104
46.0281487	4.13637164842915	0.006129741499114207	169.303829046615	0.25089348711209
46.5304413	4.12671578690321	0.007613406724430073	168.908609644677	0.311620671470555
47.0284576	4.125064168194769	0.008619757336085191	168.841008037464	0.35281112203882503
47.5392036	4.129468724570843	0.008906037199945052	169.02128880599798	0.36452870480216903
48.0337143	4.1269372591970255	0.009090724679657826	168.917674620109	0.372088058784352
48.5376778	4.133767511522938	0.009019859344913133	169.19724037735202	0.369187504013481
49.0357056	4.1264242851070945	0.0074663526615210835	168.896678325528	0.30560167268527694
49.5480728	4.135589457655812	0.006861337383057672	169.271813574064	0.280838084695194
50.01737595	4.127514881074523	0.00780005364610589	168.941316982042	0.31926022642483
50.5416832	4.122672751824163	0.007108461596963082	168.74312612964698	0.29095300647216
51.043541	4.133317983869898	0.008277500967272117	169.178840978219	0.338802392001801
51.9085083	4.1303516696893325	0.009260560786447164	169.057428205961	0.37903953839830895
52.0364723	4.123535665282999	0.007508382757859347	168.778445623429	0.307321986247519
52.501255	4.122873269410144	0.00817481601080569	168.751333418059	0.334599443671021
53.0509796	4.120114832443508	0.008575099651502101	168.63842916758801	0.350983259931912
53.5431824	4.1108131548712175	0.0072135245743979925	168.257706697898	0.295253288430026
54.0432777	4.117304673993781	0.00714105664257525	168.523407930087	0.29228713853260596
54.5139961	4.111955449810464	0.007673759904766801	168.304461420044	0.31409095832933603
55.0103836	4.111792087846979	0.008579033914777802	168.297774930461	0.35114429136082304
55.5252342	4.118757317010992	0.008622881912206361	168.58286535943697	0.35293901255409404
56.0205612	4.114538287759658	0.009080924427159623	168.41017831199002	0.371686929385305
56.5303459	4.117093904400854	0.008189491084159251	168.514781021733	0.335200102006749
57.0256882	4.117523083364234	0.007971667072058866	168.532347538483	0.32628445263058703
57.5406609	4.111451628528358	0.0070740664378674155	168.283839754617	0.289545194836623
58.0028191	4.11745104737593	0.009735629297317762	168.52939906825702	0.398484338040626
58.52160075	4.113153917348824	0.009436255687746836	168.353515315699	0.386230821499115
59.0604553	4.111126067685507	0.007258346089192429	168.270514381085	0.297087856192149
59.5049934	4.111945296870555	0.009568832742782798	168.304045854967	0.39165726887113395
60.0056267	4.117458581426596	0.008105111854720907	168.529707440844	0.331746416542741
60.5091705	4.109148766025836	0.009566752993714867	168.189582402381	0.39157214366707
61.00634	4.1094552952516	0.007465460180485022	168.20212880199097	0.30556514297528
61.500824	4.112666398974083	0.00976287993638481	168.333560936695	0.39959972077945
62.3553886	4.1106856664843585	0.008964506598968584	168.25248853234402	0.36692188751835403
62.525692	4.122148079022464	0.007250319276936542	168.721651000748	0.29675931461864796
63.0413513	4.116942441419001	0.0085937951240041	168.508581563617	0.351748475282333
63.5195694	4.109711368637398	0.007988804197310004	168.212610017998	0.32698588402275197
64.0124893	4.106646216255287	0.008109358585642998	168.087151747076	0.331920237433887
64.5255432	4.109740975908407	0.006812856073044807	168.21382185890002	0.27885371962357597
65.0183182	4.116023928209792	0.007400287738690093	168.470986343321	0.30289760125465404
65.5418091	4.10481554298505	0.00766566654337601	168.012221344122	0.313759692865354
66.0462341	4.0992088294945255	0.006405864096969618	167.782735663677	0.262195327729089
66.5248489	4.105790701369252	0.008738485567713158	168.052135080702	0.357670729912354
67.07681275	4.11345243687625	0.007957696800189538	168.365733874217	0.325712642183816
67.5581589	4.104939094042803	0.007978835223751844	168.017278352761	0.326577848783534
68.0039902	4.104772650364378	0.0074389343370608926	168.01046572699303	0.30447942649666
68.5724258	4.106710370702271	0.00896964458403458	168.089777621743	0.36713218790216695
69.0618057	4.110105359434188	0.007626827986460007	168.228736264906	0.312170010660898
69.5427628	4.101371912096376	0.008482605821683089	167.87127175234698	0.347197439681091
70.0581055	4.106819392945653	0.01033363808830114	168.09423995850202	0.422961146877538
70.5648117	4.0962731242744965	0.008639824937558391	167.662575731991	0.353632499337087
71.0137482	4.110022374544903	0.007311552638188569	168.225339650505	0.299265627737127
71.5299454	4.1057132378703365	0.007344848493922782	168.048964459662	0.300628444318013
72.7377777	4.10533972674059	0.007607691935951029	168.033676456109	0.311386762224982
73.0516052	4.103004019675582	0.009049141571676663	167.938074758958	0.370386040686548
73.5531616	4.0941194845741204	0.009565805289915146	167.574426146158	0.39153335366082
74.0545959	4.096296345249955	0.00822547307959618	167.663526178516	0.336672863673734
74.5604324	4.102263296276534	0.007374466666165487	167.90775656746501	0.301840731413143
75.0036087	4.101338205343408	0.008617073056913541	167.86989211753001	0.35270125310522404
75.5545502	4.098168037211066	0.008348963485672524	167.74013549768398	0.341727389808296
76.0084839	4.093896017350374	0.009679158370245087	167.565279517213	0.396172953814103
76.5045776	4.094512564579527	0.008140636559580621	167.590515113904	0.333200461070095
77.0126114	4.091525224225721	0.009052849660407189	167.46824172951	0.370537814674449
77.5098038	4.088064414855785	0.009283803752084882	167.32658901361998	0.379990884992699
78.0270309	4.091831275079563	0.008426394679401391	167.48076854911	0.344896688580307
78.5219727	4.090411783322626	0.00907813482632587	167.42266801797402	0.371572749581649
79.0702667	4.0953296394386856	0.008677425143170261	167.62395841011403	0.355171495182745
79.5648041	4.090800547088463	0.008148589206089678	167.438580319804	0.333525967001253
80.0370178	4.086441319164904	0.009140882988948848	167.260154868255	0.37414106430301697
80.60881805	4.087830891946681	0.006423598768255773	167.31703080027702	0.26292121698925
81.0706482	4.093328831309235	0.007377038101016307	167.54206429945498	0.30194598157037994
81.58074185	4.086572890531855	0.007133347815978989	167.265540152294	0.291971612276473
82.0258179	4.091057880898074	0.007235505523027262	167.44911312560902	0.296152980016111
83.3096924	4.0932161429974565	0.008706064448068556	167.53745190862202	0.356343716731637
83.5338974	4.095895414402132	0.008865886485669296	167.64711587173298	0.362885315318919
84.08856965	4.076988027761969	0.008242760682813759	166.87322676613	0.337380454206825
84.5592194	4.085538013874906	0.007557379128718863	167.223182115951	0.30932743302574894
85.0418015	4.096341727594851	0.008573604865471242	167.665383701344	0.350922077567236
85.5234756	4.0925583908802174	0.008631925551065477	167.510529774569	0.35330917336591194
86.0148849	4.082835333291749	0.009491603445836721	167.112560003068	0.388496233838773
86.526329	4.095639485142222	0.008225088598059664	167.63664055487303	0.33665712664576297
87.0081787	4.0898037687145745	0.007868097721178711	167.397781665874	0.322045305579441
87.5772324	4.081579496725818	0.008163043028558284	167.061157963469	0.334117569423928
88.0862656	4.081635738219787	0.006789389986889742	167.06345995688	0.27789324059111303
88.5656967	4.088591463002453	0.00808098529468873	167.348161366616	0.330758903973187
89.0778122	4.084690702018778	0.007082098772959293	167.18850120383	0.28987396246265507
89.5694275	4.086186894143099	0.008036867566763901	167.249741120638	0.32895314257132
90.0470657	4.084278540955058	0.007930773002795787	167.17163123850702	0.32461063724357603
90.52742	4.085094875737386	0.007880245572673044	167.20504424299	0.32254252341852496
91.0306396	4.079337979834133	0.009021364754624133	166.969411518785	0.369249121210875
91.5145569	4.081233757325388	0.008166691260818811	167.047006671148	0.334266893455581
92.0137177	4.076745958766306	0.0075904090549242355	166.86331875704798	0.3106793649736
92.5092316	4.083794269850314	0.0074283729946577875	167.151809771942	0.304047145294511
93.7196503	4.0752604071387974	0.008583916415778903	166.80251436127298	0.351344134649838
94.0465927	4.085079854928201	0.00766951173097756	167.20442943350798	0.31391707838089206
94.5577469	4.078508603919163	0.008188660088611808	166.935464734004	0.33516608892957395
95.0578156	4.08004162012174	0.007838313762715564	166.998211879364	0.32082623276863803
95.5373917	4.069832443367838	0.007912053457187576	166.580344999219	0.323844436568478
96.0309525	4.078880280414267	0.008154165682867764	166.950677645013	0.333754215077433
96.5117722	4.080985440785978	0.00743019483188461	167.03684294687199	0.304121714033642
97.0616531	4.078416195753319	0.008383285024500428	166.93168242002398	0.34313218812823004
97.5730972	4.070527546552284	0.008520184906038876	166.60879593175397	0.34873557102282304
98.0672684	4.071828320851181	0.00848574039305813	166.662037295985	0.347325739307266
98.5125198	4.065600730051062	0.010426586938433164	166.40713878641898	0.426765591344903
99.0608826	4.079203694762132	0.0076221669194111085	166.963915161396	0.311979230777973
99.5503998	4.073141227026499	0.007918456980651401	166.71577522418698	0.324106536092883
100.00907515	4.073893822626769	0.007703794649849584	166.746579351011	0.315320295966075
100.5272751	4.068999954652321	0.007613958802305418	166.54627080590302	0.31164326830328
101.0243988	4.074469916330792	0.008269932212970904	166.770159164014	0.338492598977087
101.5107803	4.072307851555183	0.008336637155695539	166.681664735498	0.341222866752688
102.0227661	4.0682487903287265	0.008602560160899596	166.51552526197298	0.35210723277181194
102.5322418	4.075669354731021	0.007365098972532481	166.819252797547	0.301457306871974
103.0238876	4.068892432413773	0.009307782264774637	166.541869865117	0.380972337908024
103.9656143	4.072251439302535	0.007167153111187631	166.67935575284602	0.293355280478301
104.0246735	4.0684431424488645	0.009130138956183627	166.523480194682	0.373701305489941
104.5249023	4.080626650394321	0.00788155769840554	167.022157470736	0.32259622940279903
105.0779724	4.069879632312624	0.007573245853970522	166.582276467114	0.30997686628945403
105.5531006	4.063881515836784	0.006390536325179357	166.336770460222	0.26156795410906397
106.0421982	4.063140841916907	0.007264505645353922	166.306454293937	0.297339970008799
106.5362625	4.062234550976428	0.008590279422007581	166.26935933741598	0.351604575782871
107.0246277	4.065893576494042	0.008318305064263714	166.419125142659	0.340472524777247
107.5433197	4.06246567449076	0.008324281406563909	166.278819342291	0.340717139555878
108.05574035	4.074582701808974	0.008242519816926018	166.774775531918	0.337370595441572
108.5077972	4.062755908876709	0.009636849242714343	166.290698785687	0.394441219360963
109.0018616	4.067943382282552	0.008193173800040313	166.503024752823	0.33535083747080996
109.5033531	4.062285436243811	0.009301387551650567	166.271442097705	0.38071059899537796
110.05374525	4.073191286436387	0.007622566274005046	166.717824181702	0.31199557656786997
110.5264893	4.072584066787955	0.009018310537350239	166.69297036771	0.36912411051958305
111.030632	4.062530251782711	0.008149448814090417	166.28146252422098	0.333561151200927
111.5118484	4.074797796438964	0.008927137868852037	166.783579466274	0.365392366084335
112.0529709	4.07188602942157	0.009309194412666049	166.664399337592	0.381030137850949
112.5320969	4.062513604486315	0.007535038517903691	166.280781141777	0.30841302028053896
113.0175934	4.058698931015667	0.008819672557576123	166.124644585385	0.360993755360947
113.5193787	4.065414480745532	0.007428658722690785	166.399515506099	0.30405884029055197
114.3680344	4.066043359539421	0.008386786364481496	166.42525584010698	0.343275499782978
114.5537491	4.0661222185581725	0.008209689927215292	166.428483580495	0.336026851090816
115.040535	4.0662148653166295	0.008578049573549237	166.432275660194	0.351104001765678
115.5078659	4.06384727337939	0.008530644427834161	166.335368898746	0.349163684654878
116.0307846	4.069446468980051	0.008763985767835545	166.56454686807402	0.358714466280631
116.5634308	4.064299107975524	0.008338097113786436	166.353862722252	0.341282623591784
117.0360489	4.061177084107839	0.008159403464652987	166.22607667203698	0.333968600192534
117.5392227	4.060384272913933	0.007769207106044028	166.19362650018402	0.31799766160010096
118.0370865	4.05339194698733	0.008680862341317016	165.90742698671298	0.355312181479069
