#
#Loading LSDD data
#Set sample-detector distance to 3526.155
#Set beamcenter to 595.811, 449.6049
#Opening ./rawdata/Zakutna_Dresen_LSDD_AH22_27694.dat
#	Set measurement time to: 500.1 s
#	Set monitor to: [5280238.0, 5288624.0, 5274006.0, 5284709.0, 5296840.0, 5287538.0, 5274121.0, 5254921.0, 5283089.0, 5281504.0]
#	Set tif file to: ['./rawdata/Zakutna_Dresen_LSDD_AH22_27694.1.tif', './rawdata/Zakutna_Dresen_LSDD_AH22_27694.2.tif', './rawdata/Zakutna_Dresen_LSDD_AH22_27694.3.tif', './rawdata/Zakutna_Dresen_LSDD_AH22_27694.4.tif', './rawdata/Zakutna_Dresen_LSDD_AH22_27694.5.tif', './rawdata/Zakutna_Dresen_LSDD_AH22_27694.6.tif', './rawdata/Zakutna_Dresen_LSDD_AH22_27694.7.tif', './rawdata/Zakutna_Dresen_LSDD_AH22_27694.8.tif', './rawdata/Zakutna_Dresen_LSDD_AH22_27694.9.tif', './rawdata/Zakutna_Dresen_LSDD_AH22_27694.10.tif']
#Loading detector data from ./rawdata/Zakutna_Dresen_LSDD_AH22_27694.2.tif
#Loading detector data from ./rawdata/Zakutna_Dresen_LSDD_AH22_27694.3.tif
#Loading detector data from ./rawdata/Zakutna_Dresen_LSDD_AH22_27694.4.tif
#Loading detector data from ./rawdata/Zakutna_Dresen_LSDD_AH22_27694.5.tif
#Loading detector data from ./rawdata/Zakutna_Dresen_LSDD_AH22_27694.6.tif
#Loading detector data from ./rawdata/Zakutna_Dresen_LSDD_AH22_27694.7.tif
#Loading detector data from ./rawdata/Zakutna_Dresen_LSDD_AH22_27694.8.tif
#Loading detector data from ./rawdata/Zakutna_Dresen_LSDD_AH22_27694.9.tif
#Loading detector data from ./rawdata/Zakutna_Dresen_LSDD_AH22_27694.10.tif
#Set wavelength to 1.3414
#Set capillary thickness to 0.1614
#Set transmission to 0.5159
#Set custom mask.
#Linked empty capillary data.
#	Set sample-detector distance to 3526.155
#	Set beamcenter to 595.811, 449.6049
#	Opening ./rawdata/Zakutna_Dresen_LSDD_EC_27627.dat
#		Set measurement time to: 150.1 s
#		Set monitor to: [2080633.0, 2079714.0, 2074073.0, 2071625.0, 2070406.0, 2072952.0, 2075840.0, 2074325.0, 2079622.0, 2083961.0]
#		Set tif file to: ['./rawdata/Zakutna_Dresen_LSDD_EC_27627.1.tif', './rawdata/Zakutna_Dresen_LSDD_EC_27627.2.tif', './rawdata/Zakutna_Dresen_LSDD_EC_27627.3.tif', './rawdata/Zakutna_Dresen_LSDD_EC_27627.4.tif', './rawdata/Zakutna_Dresen_LSDD_EC_27627.5.tif', './rawdata/Zakutna_Dresen_LSDD_EC_27627.6.tif', './rawdata/Zakutna_Dresen_LSDD_EC_27627.7.tif', './rawdata/Zakutna_Dresen_LSDD_EC_27627.8.tif', './rawdata/Zakutna_Dresen_LSDD_EC_27627.9.tif', './rawdata/Zakutna_Dresen_LSDD_EC_27627.10.tif']
#	Loading detector data from ./rawdata/Zakutna_Dresen_LSDD_EC_27627.2.tif
#	Loading detector data from ./rawdata/Zakutna_Dresen_LSDD_EC_27627.3.tif
#	Loading detector data from ./rawdata/Zakutna_Dresen_LSDD_EC_27627.4.tif
#	Loading detector data from ./rawdata/Zakutna_Dresen_LSDD_EC_27627.5.tif
#	Loading detector data from ./rawdata/Zakutna_Dresen_LSDD_EC_27627.6.tif
#	Loading detector data from ./rawdata/Zakutna_Dresen_LSDD_EC_27627.7.tif
#	Loading detector data from ./rawdata/Zakutna_Dresen_LSDD_EC_27627.8.tif
#	Loading detector data from ./rawdata/Zakutna_Dresen_LSDD_EC_27627.9.tif
#	Loading detector data from ./rawdata/Zakutna_Dresen_LSDD_EC_27627.10.tif
#	Set wavelength to 1.3414
#	Set capillary thickness to 1
#	Set transmission to 0.7425
#	Set custom mask.
#Linked solvent data.
#	Set sample-detector distance to 3526.155
#	Set beamcenter to 595.811, 449.6049
#	Opening ./rawdata/Zakutna_Dresen_LSDD_Toluene_27628.dat
#		Set measurement time to: 150.1 s
#		Set monitor to: [2081280.0, 2078829.0, 2075694.0, 2079667.0, 2083192.0, 2075215.0, 2071614.0, 2075513.0, 2072659.0, 2071464.0]
#		Set tif file to: ['./rawdata/Zakutna_Dresen_LSDD_Toluene_27628.1.tif', './rawdata/Zakutna_Dresen_LSDD_Toluene_27628.2.tif', './rawdata/Zakutna_Dresen_LSDD_Toluene_27628.3.tif', './rawdata/Zakutna_Dresen_LSDD_Toluene_27628.4.tif', './rawdata/Zakutna_Dresen_LSDD_Toluene_27628.5.tif', './rawdata/Zakutna_Dresen_LSDD_Toluene_27628.6.tif', './rawdata/Zakutna_Dresen_LSDD_Toluene_27628.7.tif', './rawdata/Zakutna_Dresen_LSDD_Toluene_27628.8.tif', './rawdata/Zakutna_Dresen_LSDD_Toluene_27628.9.tif', './rawdata/Zakutna_Dresen_LSDD_Toluene_27628.10.tif']
#	Loading detector data from ./rawdata/Zakutna_Dresen_LSDD_Toluene_27628.2.tif
#	Loading detector data from ./rawdata/Zakutna_Dresen_LSDD_Toluene_27628.3.tif
#	Loading detector data from ./rawdata/Zakutna_Dresen_LSDD_Toluene_27628.4.tif
#	Loading detector data from ./rawdata/Zakutna_Dresen_LSDD_Toluene_27628.5.tif
#	Loading detector data from ./rawdata/Zakutna_Dresen_LSDD_Toluene_27628.6.tif
#	Loading detector data from ./rawdata/Zakutna_Dresen_LSDD_Toluene_27628.7.tif
#	Loading detector data from ./rawdata/Zakutna_Dresen_LSDD_Toluene_27628.8.tif
#	Loading detector data from ./rawdata/Zakutna_Dresen_LSDD_Toluene_27628.9.tif
#	Loading detector data from ./rawdata/Zakutna_Dresen_LSDD_Toluene_27628.10.tif
#	Set wavelength to 1.3414
#	Set capillary thickness to 0.1606
#	Set transmission to 0.5462
#	Set custom mask.
#	Linked empty capillary data.
#		Set sample-detector distance to 3526.155
#		Set beamcenter to 595.811, 449.6049
#		Opening ./rawdata/Zakutna_Dresen_LSDD_EC_27627.dat
#			Set measurement time to: 150.1 s
#			Set monitor to: [2080633.0, 2079714.0, 2074073.0, 2071625.0, 2070406.0, 2072952.0, 2075840.0, 2074325.0, 2079622.0, 2083961.0]
#			Set tif file to: ['./rawdata/Zakutna_Dresen_LSDD_EC_27627.1.tif', './rawdata/Zakutna_Dresen_LSDD_EC_27627.2.tif', './rawdata/Zakutna_Dresen_LSDD_EC_27627.3.tif', './rawdata/Zakutna_Dresen_LSDD_EC_27627.4.tif', './rawdata/Zakutna_Dresen_LSDD_EC_27627.5.tif', './rawdata/Zakutna_Dresen_LSDD_EC_27627.6.tif', './rawdata/Zakutna_Dresen_LSDD_EC_27627.7.tif', './rawdata/Zakutna_Dresen_LSDD_EC_27627.8.tif', './rawdata/Zakutna_Dresen_LSDD_EC_27627.9.tif', './rawdata/Zakutna_Dresen_LSDD_EC_27627.10.tif']
#		Loading detector data from ./rawdata/Zakutna_Dresen_LSDD_EC_27627.2.tif
#		Loading detector data from ./rawdata/Zakutna_Dresen_LSDD_EC_27627.3.tif
#		Loading detector data from ./rawdata/Zakutna_Dresen_LSDD_EC_27627.4.tif
#		Loading detector data from ./rawdata/Zakutna_Dresen_LSDD_EC_27627.5.tif
#		Loading detector data from ./rawdata/Zakutna_Dresen_LSDD_EC_27627.6.tif
#		Loading detector data from ./rawdata/Zakutna_Dresen_LSDD_EC_27627.7.tif
#		Loading detector data from ./rawdata/Zakutna_Dresen_LSDD_EC_27627.8.tif
#		Loading detector data from ./rawdata/Zakutna_Dresen_LSDD_EC_27627.9.tif
#		Loading detector data from ./rawdata/Zakutna_Dresen_LSDD_EC_27627.10.tif
#		Set wavelength to 1.3414
#		Set capillary thickness to 1
#		Set transmission to 0.7425
#		Set custom mask.
#
#Loading SSDD data
#Set sample-detector distance to 829.5715945008504
#Set beamcenter to 611.1067227605957, 528.6221448360504
#Opening ./rawdata/Zakutna_Dresen_SSDD_AH22_27673.dat
#	Set measurement time to: 150.1 s
#	Set monitor to: [1748954.0, 1747742.0, 1744509.0, 1750036.0, 1737118.0, 1734181.0, 1737324.0, 1742790.0, 1738595.0, 1740062.0]
#	Set tif file to: ['./rawdata/Zakutna_Dresen_SSDD_AH22_27673.1.tif', './rawdata/Zakutna_Dresen_SSDD_AH22_27673.2.tif', './rawdata/Zakutna_Dresen_SSDD_AH22_27673.3.tif', './rawdata/Zakutna_Dresen_SSDD_AH22_27673.4.tif', './rawdata/Zakutna_Dresen_SSDD_AH22_27673.5.tif', './rawdata/Zakutna_Dresen_SSDD_AH22_27673.6.tif', './rawdata/Zakutna_Dresen_SSDD_AH22_27673.7.tif', './rawdata/Zakutna_Dresen_SSDD_AH22_27673.8.tif', './rawdata/Zakutna_Dresen_SSDD_AH22_27673.9.tif', './rawdata/Zakutna_Dresen_SSDD_AH22_27673.10.tif']
#Loading detector data from ./rawdata/Zakutna_Dresen_SSDD_AH22_27673.2.tif
#Loading detector data from ./rawdata/Zakutna_Dresen_SSDD_AH22_27673.3.tif
#Loading detector data from ./rawdata/Zakutna_Dresen_SSDD_AH22_27673.4.tif
#Loading detector data from ./rawdata/Zakutna_Dresen_SSDD_AH22_27673.5.tif
#Loading detector data from ./rawdata/Zakutna_Dresen_SSDD_AH22_27673.6.tif
#Loading detector data from ./rawdata/Zakutna_Dresen_SSDD_AH22_27673.7.tif
#Loading detector data from ./rawdata/Zakutna_Dresen_SSDD_AH22_27673.8.tif
#Loading detector data from ./rawdata/Zakutna_Dresen_SSDD_AH22_27673.9.tif
#Loading detector data from ./rawdata/Zakutna_Dresen_SSDD_AH22_27673.10.tif
#Set wavelength to 1.3414
#Set capillary thickness to 0.1611
#Set transmission to 0.5054
#Set custom mask.
#Linked empty capillary data.
#	Set sample-detector distance to 829.5715945008504
#	Set beamcenter to 611.1067227605957, 528.6221448360504
#	Opening ./rawdata/Zakutna_Dresen_SSDD_EC_27649.dat
#		Set measurement time to: 495.1 s
#		Set monitor to: [6492454.0, 6495167.0, 6523457.0, 6532922.0, 6518523.0, 6510220.0, 6493596.0, 6517419.0, 6513117.0, 6535315.0]
#		Set tif file to: ['./rawdata/Zakutna_Dresen_SSDD_EC_27649.1.tif', './rawdata/Zakutna_Dresen_SSDD_EC_27649.2.tif', './rawdata/Zakutna_Dresen_SSDD_EC_27649.3.tif', './rawdata/Zakutna_Dresen_SSDD_EC_27649.4.tif', './rawdata/Zakutna_Dresen_SSDD_EC_27649.5.tif', './rawdata/Zakutna_Dresen_SSDD_EC_27649.6.tif', './rawdata/Zakutna_Dresen_SSDD_EC_27649.7.tif', './rawdata/Zakutna_Dresen_SSDD_EC_27649.8.tif', './rawdata/Zakutna_Dresen_SSDD_EC_27649.9.tif', './rawdata/Zakutna_Dresen_SSDD_EC_27649.10.tif']
#	Loading detector data from ./rawdata/Zakutna_Dresen_SSDD_EC_27649.2.tif
#	Loading detector data from ./rawdata/Zakutna_Dresen_SSDD_EC_27649.3.tif
#	Loading detector data from ./rawdata/Zakutna_Dresen_SSDD_EC_27649.4.tif
#	Loading detector data from ./rawdata/Zakutna_Dresen_SSDD_EC_27649.5.tif
#	Loading detector data from ./rawdata/Zakutna_Dresen_SSDD_EC_27649.6.tif
#	Loading detector data from ./rawdata/Zakutna_Dresen_SSDD_EC_27649.7.tif
#	Loading detector data from ./rawdata/Zakutna_Dresen_SSDD_EC_27649.8.tif
#	Loading detector data from ./rawdata/Zakutna_Dresen_SSDD_EC_27649.9.tif
#	Loading detector data from ./rawdata/Zakutna_Dresen_SSDD_EC_27649.10.tif
#	Set wavelength to 1.3414
#	Set capillary thickness to 1
#	Set transmission to 0.7398
#	Set custom mask.
#Linked solvent data.
#	Set sample-detector distance to 829.5715945008504
#	Set beamcenter to 611.1067227605957, 528.6221448360504
#	Opening ./rawdata/Zakutna_Dresen_SSDD_Toluene_27650.dat
#		Set measurement time to: 495.1 s
#		Set monitor to: [6521541.0, 6493340.0, 6527203.0, 6512892.0, 6512333.0, 6521248.0, 6524680.0, 6498246.0, 6518920.0, 6520175.0]
#		Set tif file to: ['./rawdata/Zakutna_Dresen_SSDD_Toluene_27650.1.tif', './rawdata/Zakutna_Dresen_SSDD_Toluene_27650.2.tif', './rawdata/Zakutna_Dresen_SSDD_Toluene_27650.3.tif', './rawdata/Zakutna_Dresen_SSDD_Toluene_27650.4.tif', './rawdata/Zakutna_Dresen_SSDD_Toluene_27650.5.tif', './rawdata/Zakutna_Dresen_SSDD_Toluene_27650.6.tif', './rawdata/Zakutna_Dresen_SSDD_Toluene_27650.7.tif', './rawdata/Zakutna_Dresen_SSDD_Toluene_27650.8.tif', './rawdata/Zakutna_Dresen_SSDD_Toluene_27650.9.tif', './rawdata/Zakutna_Dresen_SSDD_Toluene_27650.10.tif']
#	Loading detector data from ./rawdata/Zakutna_Dresen_SSDD_Toluene_27650.2.tif
#	Loading detector data from ./rawdata/Zakutna_Dresen_SSDD_Toluene_27650.3.tif
#	Loading detector data from ./rawdata/Zakutna_Dresen_SSDD_Toluene_27650.4.tif
#	Loading detector data from ./rawdata/Zakutna_Dresen_SSDD_Toluene_27650.5.tif
#	Loading detector data from ./rawdata/Zakutna_Dresen_SSDD_Toluene_27650.6.tif
#	Loading detector data from ./rawdata/Zakutna_Dresen_SSDD_Toluene_27650.7.tif
#	Loading detector data from ./rawdata/Zakutna_Dresen_SSDD_Toluene_27650.8.tif
#	Loading detector data from ./rawdata/Zakutna_Dresen_SSDD_Toluene_27650.9.tif
#	Loading detector data from ./rawdata/Zakutna_Dresen_SSDD_Toluene_27650.10.tif
#	Set wavelength to 1.3414
#	Set capillary thickness to 0.1605
#	Set transmission to 0.544
#	Set custom mask.
#	Linked empty capillary data.
#		Set sample-detector distance to 829.5715945008504
#		Set beamcenter to 611.1067227605957, 528.6221448360504
#		Opening ./rawdata/Zakutna_Dresen_SSDD_EC_27649.dat
#			Set measurement time to: 495.1 s
#			Set monitor to: [6492454.0, 6495167.0, 6523457.0, 6532922.0, 6518523.0, 6510220.0, 6493596.0, 6517419.0, 6513117.0, 6535315.0]
#			Set tif file to: ['./rawdata/Zakutna_Dresen_SSDD_EC_27649.1.tif', './rawdata/Zakutna_Dresen_SSDD_EC_27649.2.tif', './rawdata/Zakutna_Dresen_SSDD_EC_27649.3.tif', './rawdata/Zakutna_Dresen_SSDD_EC_27649.4.tif', './rawdata/Zakutna_Dresen_SSDD_EC_27649.5.tif', './rawdata/Zakutna_Dresen_SSDD_EC_27649.6.tif', './rawdata/Zakutna_Dresen_SSDD_EC_27649.7.tif', './rawdata/Zakutna_Dresen_SSDD_EC_27649.8.tif', './rawdata/Zakutna_Dresen_SSDD_EC_27649.9.tif', './rawdata/Zakutna_Dresen_SSDD_EC_27649.10.tif']
#		Loading detector data from ./rawdata/Zakutna_Dresen_SSDD_EC_27649.2.tif
#		Loading detector data from ./rawdata/Zakutna_Dresen_SSDD_EC_27649.3.tif
#		Loading detector data from ./rawdata/Zakutna_Dresen_SSDD_EC_27649.4.tif
#		Loading detector data from ./rawdata/Zakutna_Dresen_SSDD_EC_27649.5.tif
#		Loading detector data from ./rawdata/Zakutna_Dresen_SSDD_EC_27649.6.tif
#		Loading detector data from ./rawdata/Zakutna_Dresen_SSDD_EC_27649.7.tif
#		Loading detector data from ./rawdata/Zakutna_Dresen_SSDD_EC_27649.8.tif
#		Loading detector data from ./rawdata/Zakutna_Dresen_SSDD_EC_27649.9.tif
#		Loading detector data from ./rawdata/Zakutna_Dresen_SSDD_EC_27649.10.tif
#		Set wavelength to 1.3414
#		Set capillary thickness to 1
#		Set transmission to 0.7398
#		Set custom mask.

#LSDD Data
#q / A-1	I / cm-1	sI / cm-1	I_raw_sample / a.u.	sI_raw_sample / a.u.
0.00298072094994	2.03237	0.266023179668	219.007	1.18454724321
0.00361186169711	4.70264	0.144926936798	164.508	0.719288065811
0.00424300244427	4.6892	0.091985797153	103.281	0.527058874601
0.00487414319143	4.39535	0.0543964988693	67.1166	0.386902429784
0.0055052839386	4.28113	0.0374305922231	53.7346	0.336492777611
0.00613642468576	4.22707	0.0327876695273	50.3096	0.32395099741
0.00676756543292	4.18406	0.0300359381765	48.5969	0.312951297311
0.00739870618008	4.13403	0.0285185569799	47.3555	0.308177923195
0.00802984692725	4.06907	0.0272060142744	46.2857	0.300057478863
0.00866098767441	4.03272	0.0256313539565	45.6977	0.285392170624
0.00929212842157	3.97191	0.0249100062526	44.9238	0.278617539727
0.00992326916874	3.94037	0.0228056708955	44.5403	0.255738380896
0.0105544099159	3.86631	0.0213595798272	43.6771	0.239901611019
0.0111855506631	3.78832	0.0205564421423	42.7905	0.231078196777
0.0118166914102	3.72819	0.0192780170866	42.1114	0.216734902514
0.0124478321574	3.66167	0.0189028350443	41.3528	0.21253044999
0.0130789729045	3.58943	0.018097145006	40.5376	0.203543030268
0.0137101136517	3.51673	0.0172079208517	39.7147	0.193556389322
0.0143412543989	3.44416	0.0165431504269	38.9004	0.185989175839
0.014972395146	3.35212	0.0159064924521	37.8652	0.178836117406
0.0156035358932	3.28064	0.0155249984618	37.0539	0.174594148904
0.0162346766404	3.20717	0.0150466564023	36.2249	0.169209333838
0.0168658173875	3.1207	0.0141992615282	35.2468	0.159689123036
0.0174969581347	3.03737	0.0139119914764	34.3096	0.156458246354
0.0181280988819	2.95863	0.0134513402264	33.4178	0.151290363713
0.018759239629	2.88514	0.0127943621756	32.594	0.143840876614
0.0193903803762	2.78951	0.0125573172573	31.5114	0.141207239772
0.0200215211233	2.70425	0.0122034907416	30.5503	0.13723990979
0.0206526618705	2.62353	0.0118461300009	29.6385	0.133217477332
0.0212838026177	2.54232	0.0113823265613	28.7234	0.127983304113
0.0219149433648	2.44978	0.0110532842108	27.6816	0.12427176414
0.022546084112	2.36893	0.0109357702037	26.774	0.122928126631
0.0231772248592	2.28319	0.0105275641322	25.8	0.118356467438
0.0238083656063	2.20081	0.010320424637	24.8675	0.11602723006
0.0244395063535	2.11242	0.0101728203722	23.8705	0.114343886748
0.0250706471006	2.03443	0.00980089266127	22.9979	0.110148294045
0.0257017878478	1.94862	0.00931872016342	22.0229	0.104762808481
0.026332928595	1.87245	0.00900757444868	21.1613	0.101246035762
0.0269640693421	1.7902	0.00872978758001	20.2314	0.0981151097373
0.0275952100893	1.71302	0.00834175874589	19.3613	0.0937472622473
0.0282263508365	1.63568	0.00812342413305	18.4902	0.0912923363965
0.0288574915836	1.55814	0.00776119231621	17.6096	0.0872200638226
0.0294886323308	1.48841	0.00750438507111	16.8249	0.0843092140215
0.0301197730779	1.4107	0.00723297352465	15.9517	0.0812326619725
0.0307509138251	1.34035	0.00697711074528	15.1611	0.078325431645
0.0313820545723	1.27442	0.00676362609111	14.413	0.075940445174
0.0320131953194	1.20742	0.00642013989403	13.6575	0.0720572670482
0.0326443360666	1.1473	0.00611453680655	12.9819	0.0685904407568
0.0332754768138	1.07929	0.00595265327856	12.2125	0.0668070531923
0.0339066175609	1.0174	0.00572368084464	11.515	0.0641922364901
0.0345377583081	0.960706	0.00547963352955	10.8764	0.061392824471
0.0351688990552	0.903825	0.00527756038815	10.2332	0.0591183527602
0.0358000398024	0.847387	0.00510407860661	9.59869	0.0571624703933
0.0364311805496	0.794627	0.00490475958142	9.00403	0.0549199452053
0.0370623212967	0.742609	0.00471586360862	8.41711	0.0527725252313
0.0376934620439	0.694505	0.00453352463934	7.87081	0.0507316975758
0.0383246027911	0.647427	0.00432506409048	7.34188	0.0483210214551
0.0389557435382	0.60717	0.00418712367833	6.88852	0.046772365315
0.0395868842854	0.560018	0.00409268298043	6.35579	0.0457008211899
0.0402180250326	0.521028	0.00397720420212	5.91568	0.0443881428701
0.0408491657797	0.483056	0.00382819398179	5.48694	0.0426988868273
0.0414803065269	0.447039	0.0036979512255	5.0847	0.0411533410897
0.042111447274	0.412963	0.00354650577984	4.69948	0.0394754205182
0.0427425880212	0.380779	0.00338208467795	4.33588	0.0375739539738
0.0433737287684	0.351203	0.00317167420651	4.00273	0.035180278266
0.0440048695155	0.322004	0.0029985329949	3.67043	0.0332063835877
0.0446360102627	0.29424	0.00283893537735	3.35788	0.0314425187579
0.0452671510099	0.269012	0.00270618943878	3.0714	0.0299252897122
0.045898291757	0.2435	0.00252901394154	2.78376	0.027856562028
0.0465294325042	0.223634	0.00238527369759	2.56091	0.0262408635633
0.0471605732513	0.202332	0.00228324341348	2.32274	0.0250398654392
0.0477917139985	0.18259	0.0021578012086	2.09784	0.023632766938
0.0484228547457	0.164987	0.00204283156946	1.89956	0.0223123336468
0.0490539954928	0.149503	0.00192705185837	1.72288	0.0210268198045
0.04968513624	0.135098	0.00183543813959	1.5588	0.0199636281968
0.0503162769872	0.121259	0.00174067446062	1.40777	0.0188426208412
0.0509474177343	0.110567	0.00166230820635	1.28321	0.0179458589816
0.0515785584815	0.0993621	0.00157284453299	1.15562	0.0169264123813
0.0522096992286	0.0887176	0.00147727492324	1.03709	0.0157855605659
0.0528408399758	0.0795542	0.00140268480682	0.935053	0.0149164252362
0.053471980723	0.0710854	0.00132952527282	0.838654	0.0140910050605
0.0541031214701	0.0642575	0.00127299581252	0.763363	0.0133452447774
0.0547342622173	0.0578909	0.0012339223641	0.688843	0.0129225786751
0.0553654029645	0.0521603	0.00120659751372	0.62838	0.0124064012647
0.0559965437116	0.0474004	0.00115776657281	0.573604	0.011862130333
0.0566276844588	0.0417597	0.00110565936471	0.509679	0.0111989763569
0.0572588252059	0.0392045	0.00107460543774	0.480403	0.0108852585069
0.0578899659531	0.0356668	0.00104649663051	0.443624	0.0104650585062
0.0585211067003	0.0329442	0.000985667590538	0.41008	0.00982682203118
0.0591522474474	0.0310715	0.000963990489985	0.388862	0.00947965463512
0.0597833881946	0.0290695	0.000931305009677	0.367717	0.00912460805821
0.0604145289418	0.0284353	0.00110237503864	0.358956	0.011392727572
0.0610456696889	0.0266231	0.000887443297151	0.33941	0.00860027031872
0.0616768104361	0.0259291	0.000865088085362	0.329238	0.00839501400861
0.0623079511833	0.0253086	0.000844985646343	0.322123	0.00823748264989
0.0629390919304	0.0245213	0.000843589287371	0.315396	0.00810407774308
0.0635702326776	0.0244555	0.000855097402931	0.317626	0.00812440961899
0.0642013734247	0.0251247	0.000836322219195	0.320399	0.00805403034706
0.0648325141719	0.0248907	0.000831393332935	0.319617	0.00797954446665
0.0654636549191	0.0255263	0.000836419419098	0.325801	0.00805276845318
0.0660947956662	0.0254619	0.000839893004311	0.328166	0.00803762089201
0.0667259364134	0.0258324	0.000822635473655	0.327641	0.00797047061007
0.0673570771606	0.026342	0.000820519855523	0.334199	0.00798601153571
0.0679882179077	0.0272431	0.000811851845531	0.34158	0.00803543125187
0.0686193586549	0.0270972	0.000817846350954	0.342206	0.00798639455613
0.069250499402	0.0274993	0.000823012539785	0.348264	0.00801951995998
0.0698816401492	0.0277574	0.000820877961207	0.350647	0.00801733614075
0.0705127808964	0.0281958	0.000822835604728	0.35528	0.00803437661485
0.0711439216435	0.0282796	0.000823580065011	0.358487	0.00803060182318
0.0717750623907	0.0287397	0.000814471228519	0.362528	0.00801100144011
0.0724062031379	0.0289145	0.000814215458071	0.363496	0.007998946217
0.073037343885	0.029577	0.000815637553569	0.369096	0.00798875905844
0.0736684846322	0.0297428	0.00080918121892	0.371863	0.00799384882469
0.0742996253793	0.0298308	0.000801038276409	0.370254	0.00796270762319
0.0749307661265	0.0290555	0.000797471668792	0.363553	0.00785456261389
0.0755619068737	0.0293049	0.000793938440377	0.367089	0.00784926472302
0.0761930476208	0.029028	0.000789557143214	0.364681	0.0077409280736
0.076824188368	0.0290103	0.000782484751573	0.362657	0.00770515276158
0.0774553291152	0.0284707	0.000778674805869	0.35776	0.00763692792322
0.0780864698623	0.0285938	0.000772811873401	0.358237	0.00759009816952
0.0787176106095	0.0277495	0.000758335751457	0.348569	0.00745273313251
0.0793487513566	0.0275332	0.000753780574203	0.347328	0.00737772553949
0.0799798921038	0.0270229	0.000752771430452	0.340465	0.00729362252318
0.080611032851	0.0263844	0.000749039611	0.336703	0.00725119958681
0.0812421735981	0.0259929	0.000737706119158	0.33107	0.00713412737154
0.0818733143453	0.0253467	0.000724442344632	0.322938	0.00701386791793
0.0825044550925	0.0246175	0.000718478860666	0.315362	0.0069329147056
0.0831355958396	0.0242224	0.000706258107174	0.308833	0.00682510767788
0.0837667365868	0.0229401	0.000700011956951	0.296607	0.00669288922916
0.0843978773339	0.0222972	0.000691375134909	0.290699	0.00658462047382
0.0850290180811	0.0220294	0.000686779208538	0.28661	0.00651253114581
0.0856601588283	0.0210162	0.000671230778352	0.274903	0.00635699798054
0.0862912995754	0.0204207	0.000654371712452	0.267345	0.00619785196274
0.0869224403226	0.0196956	0.000649860816144	0.258742	0.00611214609487
0.0875535810698	0.0188891	0.000649913186212	0.249738	0.00606998417484
0.0881847218169	0.0182649	0.000651112701999	0.242518	0.00610718404445
0.0888158625641	0.0171257	0.000648067902476	0.228802	0.00598624305308
0.0894470033113	0.0165086	0.000650350206597	0.22199	0.00597964186313
0.0900781440584	0.0165333	0.00098397195921	0.221189	0.010237829024
0.0907092848056	0.0154881	0.000650361567211	0.211465	0.00589508875983
0.0913404255527	0.0150129	0.00063108025462	0.205177	0.00576286378562
0.0919715662999	0.014335	0.00061945374538	0.197613	0.00561019378455
0.0926027070471	0.0133735	0.000620573113333	0.188934	0.0054521155732
0.0932338477942	0.0129877	0.000607196321163	0.181936	0.00537177839971
0.0938649885414	0.0120851	0.000599598659774	0.17377	0.00522298804927
0.0944961292886	0.011604	0.000593346192464	0.167823	0.00513771456128
0.0951272700357	0.0109444	0.000577707228846	0.160548	0.00499094411263
0.0957584107829	0.0107099	0.000561937770824	0.154985	0.00487534216989
0.09638955153	0.00967397	0.000566608103759	0.147297	0.00476152406731
0.0970206922772	0.00981127	0.000568901784374	0.147808	0.00477301538226
0.0976518330244	0.00942598	0.00054866491458	0.139721	0.00461187867403
0.0982829737715	0.0088007	0.000549432341096	0.136065	0.00457134656508
0.0989141145187	0.00805093	0.000546741461066	0.129785	0.00444015606101
0.0995452552659	0.00789826	0.000532868650966	0.126468	0.00436286131072
0.100176396013	0.00767868	0.000537507777539	0.125102	0.00434281068308
0.10080753676	0.00726592	0.000532995373696	0.120272	0.00426581732921
0.101438677507	0.00672879	0.000522816469894	0.114909	0.00413631519408
0.102069818255	0.00680574	0.000511590873563	0.113447	0.00412752892143
0.102700959002	0.00652201	0.00052029112108	0.110017	0.00405295974232
0.103332099749	0.0065419	0.000522581028178	0.10878	0.00409785555379
0.103963240496	0.00616792	0.000527182773145	0.105407	0.00409701440991
0.104594381243	0.00577417	0.000520347896871	0.101749	0.0040222451654
0.10522552199	0.00560848	0.000530198508063	0.10058	0.00401201344526
0.105856662737	0.00536319	0.000534533752622	0.0995568	0.0040082301424
0.106487803485	0.00534362	0.000518866919871	0.094918	0.00393758948817
0.107118944232	0.00535756	0.000526773148907	0.0969473	0.00399557005647
0.107750084979	0.00525012	0.00052025865306	0.0957462	0.00395623901252
0.108381225726	0.0052671	0.000520278095497	0.0947948	0.00397428235187
0.109012366473	0.00491256	0.000522532487833	0.0928509	0.00393563320256
0.10964350722	0.00462835	0.000515789417296	0.0879394	0.00384565921298
0.110274647968	0.00462017	0.000520948017422	0.0901658	0.00390210249859
0.110905788715	0.00473735	0.000522679700115	0.0902788	0.00392167709201
0.111536929462	0.00475532	0.000524189756631	0.0894952	0.00390128565316
0.112168070209	0.00446073	0.00051881080252	0.0881874	0.00387137994008
0.112799210956	0.00431445	0.000516451538798	0.0869226	0.0038342987066
0.113430351703	0.00463049	0.000514905149629	0.0878462	0.00387526802063
0.114061492451	0.00451961	0.000511104295644	0.0861259	0.00384314983819
0.114692633198	0.00438308	0.000515285058599	0.0855597	0.00385839196522
0.115323773945	0.00436446	0.000515365035093	0.0860331	0.00385425142083
0.115954914692	0.00435609	0.000516924901086	0.0852423	0.00385665722924
0.116586055439	0.00392058	0.000530246205744	0.0837552	0.00384687237677
0.117217196186	0.00407439	0.000531883834713	0.0854571	0.00386808007242
0.117848336934	0.00457721	0.000522654701039	0.0854008	0.00386899079601
0.118479477681	0.00438121	0.000527534147227	0.0849184	0.00387356263392
0.119110618428	0.00428609	0.000526258659309	0.0846905	0.00386926114396
0.119741759175	0.00407741	0.000513510670315	0.0806001	0.00377520298912
0.120372899922	0.00420804	0.000532049691007	0.0845643	0.00387592443551
0.121004040669	0.00382667	0.000520286524684	0.0800911	0.00377434256722
0.121635181417	0.00393087	0.000527088111853	0.0820262	0.0038129695424
0.122266322164	0.00382914	0.000527820073641	0.0815041	0.00380635362871
0.122897462911	0.00366977	0.000525784514857	0.0788326	0.0037745086206
0.123528603658	0.00381763	0.000518243308975	0.0783143	0.00377292016125
0.124159744405	0.00356144	0.000531794982677	0.0789071	0.00376030480641
0.124790885152	0.00340597	0.000734406842487	0.0781301	0.00374530852499
0.1254220259	0.00341346	0.000910049249707	0.0756631	0.00368459247829
0.126053166647	0.0036325	0.000521519743865	0.0772493	0.0037141375875
0.126684307394	0.003373	0.000515179005384	0.0739246	0.00365673311461
0.127315448141	0.00343325	0.000515829741284	0.0758317	0.00368704412703
0.127946588888	0.00332483	0.000512580865791	0.0737746	0.00364794102861
0.128577729635	0.00321776	0.00052444768591	0.0734439	0.00363192578967
0.129208870383	0.00317435	0.00051371307173	0.0718955	0.00358369391371
0.12984001113	0.00342121	0.000507698536332	0.0743475	0.00365849212431
0.130471151877	0.00332769	0.000502640449249	0.0717578	0.0036183293909
0.131102292624	0.0031418	0.000508941413312	0.0724708	0.0036265744618
0.131733433371	0.00294212	0.000513451670974	0.0705988	0.00358249849861
0.132364574118	0.00294542	0.000515847103851	0.06991	0.00354356205709
0.132995714865	0.00287542	0.000508763345879	0.0684377	0.00351496646332
0.133626855613	0.00297594	0.000510529721541	0.0694068	0.00355813778255
0.13425799636	0.00286408	0.000508759231798	0.0682888	0.00353969821641
0.134889137107	0.00256604	0.000505736650667	0.0667544	0.00348658001533
0.135520277854	0.00268524	0.000522189499625	0.0695771	0.00359377670432
0.136151418601	0.00243083	0.000546224388742	0.0676971	0.00365043938747
0.136782559348	0.00270994	0.000551545784066	0.0663882	0.00374961790025
0.137413700096	0.00265103	0.000577533720542	0.0664216	0.00387611274511
0.138044840843	0.00235521	0.000586415643181	0.0635296	0.00388173479145
0.13867598159	0.00223364	0.000583175468809	0.0620607	0.0039025715311
0.139307122337	0.0026422	0.000581899317656	0.0635876	0.00403389279332
0.139938263084	0.00244304	0.000590933133242	0.0622544	0.00406432814258
0.140569403831	0.00228851	0.000596630539582	0.0607199	0.0040648665034
0.141200544579	0.00229539	0.000624127229279	0.0637424	0.00423929403785
0.141831685326	0.00231579	0.000627256133798	0.0613533	0.00421984277308
0.142462826073	0.00215122	0.000635376224627	0.0612941	0.00427946110136
0.14309396682	0.00206168	0.000635937474267	0.0597808	0.00426271467026
0.143725107567	0.00201632	0.000652147354437	0.0585518	0.00429368466612
0.144356248314	0.00144404	0.000675663985955	0.0571967	0.00432845522031
0.144987389062	0.00157053	0.000693526515342	0.0577058	0.00441702654273
0.145618529809	0.00165207	0.000682360794608	0.0560067	0.0044333464959
0.146249670556	0.00187629	0.00104994050153	0.0598469	0.00984975910576
0.146880811303	0.00171598	0.000725179582687	0.0597532	0.00471965435193
0.14751195205	0.00187961	0.000691250840748	0.0574054	0.00465373332111
0.148143092797	0.00179369	0.000705507670875	0.0560719	0.00468715698194
0.148774233545	0.00156263	0.000711039071529	0.0535843	0.00465851115612
0.149405374292	0.00190262	0.000717865115758	0.0558662	0.00478767967254
0.150036515039	0.00182044	0.000717280972848	0.0559823	0.0048586208709
0.150667655786	0.0018146	0.000735301322941	0.0565083	0.00500258335097
0.151298796533	0.00133728	0.000774322179116	0.0545487	0.00498535352328
0.15192993728	0.00134166	0.000768217909391	0.0514871	0.00493862111579
0.152561078028	0.00113038	0.000796353431838	0.0515445	0.00501151517334
#0.153192218775	0.00102016	0.00315135720604	0.0472377	0.00486172150177
#0.153823359522	0.000506005	0.00232753577312	0.0423707	0.00470320772846
#0.154454500269	0.000448559	0.000840964634794	0.0424747	0.004815524787
0.155085641016	0.000891477	0.000808262117658	0.0417667	0.0048798261907
0.155716781763	0.000979186	0.000808864429478	0.0423226	0.00497683272444
0.156347922511	0.00146524	0.000845213305431	0.0481657	0.00543981167236
0.156979063258	0.00172132	0.000810058410514	0.0476818	0.00553884376183
0.157610204005	0.00107698	0.000828430973496	0.041036	0.00517943553792
0.158241344752	0.000972377	0.000866458626939	0.0408445	0.00529365874204
0.158872485499	0.00109194	0.000903469836309	0.0452757	0.00570385978703
0.159503626246	0.00123979	0.000953929599052	0.0482011	0.00597129101706
0.160134766993	0.00140534	0.00091127553462	0.0456616	0.00600800928909
#0.160765907741	0.000958673	0.000965625315237	0.0432002	0.00602667412572
0.161397048488	0.0011027	0.000980171203626	0.0459766	0.00633783649049
#0.162028189235	0.000461364	0.00103595416662	0.0427749	0.00628652295575
#0.162659329982	0.000260997	0.00112212968225	0.0437244	0.00645161185559
#0.163290470729	0.000832092	0.00104102223614	0.0423247	0.00639861050833
0.163921611476	0.00100377	0.00100156987961	0.0392399	0.00617829295562
#0.164552752224	0.000757257	0.00104102069537	0.0413367	0.00647108423034
#0.165183892971	0.00095667	0.00112034531817	0.0435411	0.00677693033984
0.165815033718	0.00154535	0.00109806463234	0.0475759	0.00722892378081
#0.166446174465	0.00101781	0.00118819223078	0.0464966	0.00719401450192
#0.167077315212	0.00107984	0.0012429260683	0.0491244	0.00769702541402
0.167708455959	0.00130944	0.00113417652554	0.046653	0.00762727037916
#0.168339596707	0.000424597	0.00127843085346	0.0445519	0.00762828843437
#0.168970737454	0.000886303	0.0012969495961	0.0476631	0.0083008880294
#0.169601878201	0.000462297	0.00144460936963	0.04551	0.00829842769135
#0.170233018948	0.00097163	0.00147433120451	0.049507	0.00885031779552
#0.170864159695	0.00104005	0.00142239306912	0.0497103	0.0091311558909
#0.171495300442	0.000690022	0.00141373211755	0.0431983	0.00855345582539
#0.17212644119	0.00024806	0.00155187231935	0.0462038	0.00892649515045
#0.172757581937	0.000783222	0.00153533855767	0.0494748	0.00940626164434
#0.173388722684	0.000976175	0.00144177947487	0.0459674	0.0091651661412
#0.174019863431	0.00137561	0.00162160545369	0.0521548	0.0100445383309
#0.174651004178	-5.62838e-05	0.00174692907002	0.0514056	0.0100840123536
#0.175282144925	9.44347e-05	0.00159874649209	0.0432156	0.00940479338552
#0.175913285673	0.000885304	0.00145533410172	0.0387057	0.00928717362917
#0.17654442642	0.000266968	0.00142296299214	0.0261871	0.00779451776018
#0.177175567167	-9.32888e-06	0.00124102029981	0.0217611	0.00734204190266
#0.177806707914	0.000221065	0.000974698184056	0.0125036	0.00563249671194
#0.178437848661	0.000737538	0.00138935729149	0.0190794	0.007057759829
#0.179068989408	0.00085462	0.00134387241367	0.0223418	0.00775137218909
#0.179700130156	0.00048158	0.00142391792674	0.0161197	0.00687843483119
#0.180331270903	0.000278947	0.00155332160201	0.0134571	0.006491873074
0.18096241165	0.00124276	0.00102040052243	0.0227384	0.00851824746222
#0.181593552397	0.000744779	0.00138307355002	0.0198661	0.00822905089067
#0.182224693144	0.000345315	0.00169793195238	0.0180637	0.0083114470146
#0.182855833891	0.000616703	0.00127881139391	0.020376	0.00894549907271
#0.183486974639	0.000161171	0.00163914195077	0.0153683	0.00805802077489
#0.184118115386	-4.44173e-05	0.00162131931431	0.0106582	0.00699132721291
#0.184749256133	-0.000555069	0.00196146354373	0.0131157	0.00801744139338
#0.18538039688	-1.62653e-05	0.00146648710133	0.012436	0.0081834005742
#0.186011537627	-9.02695e-05	0.00150822031291	0.0136414	0.00902572820677
#0.186642678374	-0.000225389	0.00186213183166	0.0136405	0.00954813192764
#0.187273819121	-0.000270696	0.00152167191731	0.0106026	0.00890611647369
#0.187904959869	-0.000952942	0.00296991754713	0.0103861	0.00984279411211
#0.188536100616	-0.00124262	0.00332870023914	0.0190842	0.015659873013
#0.189167241363	-0.00122674	0.0033453310095	0.0224156	0.0171974545029
#0.18979838211	-0.00133446	0.00511445736221	0.0183674	0.0189101334208
#0.190429522857	-0.000115754	0.00287215884581	0.00738582	0.0131279186478
#0.191060663604	-0.00020088	0.000743163814874	0.00179894	0.00836695592624
#0.191691804352	-0.00036038	4.43227890102e-05	0.0	0.0

#SSDD Data
#q / A-1	I / cm-1	sI / cm-1	I_raw_sample / a.u.	sI_raw_sample / a.u.
0.0175022752263	2.99613	0.0156954018779	197.139	1.03161828734
0.0200368643222	2.74234	0.0103017030994	180.438	0.677105920676
0.0225714534181	2.39449	0.00899672469984	157.569	0.591323658685
0.025106042514	2.06077	0.00798844308876	135.623	0.525051565205
0.0276406316098	1.73197	0.00701369449722	114.006	0.460971271013
0.0301752207057	1.43427	0.00603312355422	94.4332	0.396507611152
0.0327098098016	1.15915	0.00534931904962	76.3504	0.351549463965
0.0352443988974	0.91632	0.00459582792757	60.3818	0.30201532998
0.0377789879933	0.701708	0.00379185610355	46.2764	0.249147059183
0.0403135770892	0.528357	0.00317518550107	34.8762	0.208602547405
0.0428481661851	0.384577	0.00263166936736	25.4222	0.172854939037
0.0453827552809	0.273156	0.00220239499035	18.0991	0.144618812502
0.0479173443768	0.186835	0.001774048915	12.4239	0.116432523451
0.0504519334727	0.124189	0.00142154332115	8.30446	0.0932228407433
0.0529865225685	0.0806625	0.00114024298144	5.44132	0.0746930129257
0.0555211116644	0.0524727	0.000875390942122	3.59195	0.0572118706302
0.0580557007603	0.0362512	0.000730920359742	2.5243	0.047675241218
0.0605902898562	0.0287836	0.000646110048834	2.03305	0.0420611030223
0.063124878952	0.0255198	0.00059350409806	1.81829	0.0385855472784
0.0656594680479	0.0258599	0.0005867721288	1.83908	0.0381615593637
0.0681940571438	0.0272934	0.000583320116972	1.93564	0.0379290205191
0.0707286462396	0.02871	0.000596735561635	2.02534	0.038849744571
0.0732632353355	0.0295403	0.000592544104404	2.08124	0.0385835473976
0.0757978244314	0.0296018	0.000581210304606	2.08416	0.0378519301168
0.0783324135273	0.0283724	0.000565442188975	2.00228	0.0368235102224
0.0808670026231	0.0264766	0.000537592878177	1.87646	0.0349739536147
0.083401591719	0.0242008	0.000503108206195	1.72792	0.0327009713249
0.0859361808149	0.02114	0.000470190701295	1.52742	0.0305198752332
0.0884707699107	0.0183307	0.000442717813061	1.3437	0.0286914464445
0.0910053590066	0.0154448	0.000415458666241	1.1529	0.0268554023685
0.0935399481025	0.0128872	0.000389539404777	0.983833	0.025112230979
0.0960745371984	0.010653	0.000359540260705	0.841315	0.0230835375709
0.0986091262942	0.00883308	0.000335886223098	0.719314	0.0215162702907
0.10114371539	0.00756469	0.00031476519854	0.635669	0.0200822409803
0.103678304486	0.00658036	0.000303220629526	0.569317	0.0192670719811
0.106212893582	0.00576387	0.000286724169943	0.514581	0.0181813542515
0.108747482678	0.00544166	0.000280398216073	0.49609	0.0177502067373
0.111282071774	0.00507882	0.000269158047362	0.470138	0.017003423586
0.113816660869	0.00464629	0.000263330810115	0.444098	0.0165843419679
0.116351249965	0.00447254	0.000271376674961	0.433001	0.0170989384684
0.118885839061	0.0042543	0.000262464866411	0.419394	0.0164969816497
0.121420428157	0.00396681	0.000245392492513	0.398998	0.0153903393169
0.123955017253	0.00399397	0.000234948629604	0.401851	0.014731325374
0.126489606349	0.00383397	0.000228158455852	0.390927	0.01430181924
0.129024195445	0.00339815	0.000216833525039	0.363391	0.0135594160107
0.131558784541	0.00311698	0.000206985569349	0.344378	0.0128822686231
0.134093373636	0.00295712	0.000202291598442	0.333605	0.0125915746017
0.136627962732	0.0027579	0.000195390390977	0.31926	0.012144385479
0.139162551828	0.00261237	0.00018891181772	0.307757	0.0117169984454
0.141697140924	0.00241151	0.000182806223653	0.294287	0.0112948153761
0.14423173002	0.00212065	0.000174244070115	0.276107	0.0107132852974
0.146766319116	0.00199801	0.000171356835148	0.269505	0.0105349654933
0.149300908212	0.00184399	0.000165605714126	0.257795	0.010165531757
0.151835497308	0.00169992	0.000161114228046	0.248196	0.00986919511584
0.154370086403	0.0016266	0.000158368847873	0.241945	0.00968726045515
0.156904675499	0.00148874	0.000154778967644	0.236614	0.00942273303836
0.159439264595	0.00134471	0.000148751959786	0.22464	0.00901863521818
0.161973853691	0.00129789	0.000148410496848	0.22489	0.00899224737292
0.164508442787	0.0012288	0.000145900474669	0.219163	0.00884777681824
0.167043031883	0.00119277	0.000143596204364	0.21436	0.00869075092881
0.169577620979	0.00115649	0.00014202678754	0.213194	0.00858017567567
0.172112210075	0.00104521	0.00013840371193	0.205097	0.00835125819795
0.17464679917	0.00100693	0.000136389908534	0.202299	0.00822320642726
0.177181388266	0.00104207	0.000136882996949	0.20645	0.008209454357
0.179715977362	0.000940879	0.000136129935217	0.199044	0.00805710193264
0.182250566458	0.000950897	0.000132622328133	0.200238	0.00798270876559
0.184785155554	0.000915564	0.000131555920468	0.197366	0.0079098517147
0.18731974465	0.00104137	0.000306478500105	0.207503	0.0198449939677
0.189854333746	0.00134742	0.000442412016673	0.2245	0.0288816904482
0.192388922841	0.00100889	0.000328219623283	0.204082	0.0213042941768
0.194923511937	0.000819112	0.000125105014835	0.190102	0.00750918748534
0.197458101033	0.000646207	0.000121162893765	0.179331	0.00723876606857
0.199992690129	0.000657917	0.000120260723252	0.180969	0.0071717482963
0.202527279225	0.000618625	0.00011833625656	0.176787	0.00703943669024
0.205061868321	0.000605978	0.000117778586933	0.176571	0.00702332815269
0.207596457417	0.000552043	0.000115557852795	0.172863	0.00687028503421
0.210131046513	0.000561871	0.000114936384672	0.173645	0.00683122774878
0.212665635608	0.000589049	0.000115788791829	0.17714	0.00689401648905
0.215200224704	0.000488651	0.000112893511323	0.171517	0.00668440025458
0.2177348138	0.000477402	0.000111605958179	0.169234	0.00661080314938
0.220269402896	0.000443859	0.000110297571178	0.166703	0.00652830065297
0.222803991992	0.000443157	0.000110175010661	0.167439	0.0065223640877
0.225338581088	0.000442642	0.000109364467836	0.166893	0.00647097517236
0.227873170184	0.000415606	0.000107893150627	0.164376	0.00638144480639
0.23040775928	0.000351551	0.000106877584534	0.161626	0.00631134804867
0.232942348375	0.000432382	0.000107090745263	0.166298	0.0063380788218
0.235476937471	0.000376057	0.000105571632412	0.162048	0.00623333783196
0.238011526567	0.000431181	0.000105611430453	0.165372	0.00625003326769
0.240546115663	0.000410237	0.000105061380564	0.164623	0.00621941877608
0.243080704759	0.000315966	0.000102740372109	0.15954	0.006057599255
0.245615293855	0.000336105	0.000103131683311	0.160909	0.00608445428312
0.248149882951	0.000317171	0.000101365623431	0.158849	0.00597428820604
0.250684472047	0.000333356	0.000101772195768	0.160907	0.00600286301223
0.253219061142	0.000257976	9.99670790099e-05	0.155255	0.00587638085592
0.255753650238	0.00029313	9.95273690526e-05	0.157774	0.00585294142472
0.258288239334	0.000269909	9.94690063011e-05	0.157393	0.00584913176768
0.26082282843	0.000290881	9.91590009901e-05	0.159081	0.00583279432917
0.263357417526	0.000261535	9.80370176597e-05	0.156825	0.00576262783647
0.265892006622	0.00024147	9.70900936481e-05	0.155092	0.0056990852133
0.268426595718	0.000268684	9.68214935954e-05	0.156897	0.00569208385486
0.270961184814	0.000264643	9.66781469291e-05	0.156748	0.00568272694497
0.273495773909	0.000225715	9.8744242074e-05	0.156403	0.00564580891527
0.276030363005	0.000229544	9.53848544984e-05	0.154976	0.00560272185683
0.278564952101	0.000244353	9.47822448387e-05	0.155162	0.00555401350231
0.281099541197	0.000189192	9.3359443938e-05	0.152265	0.005454682788
0.283634130293	0.000272954	9.391596719e-05	0.155825	0.00551167329557
0.286168719389	0.000226669	9.28926299233e-05	0.153631	0.00544590759505
0.288703308485	0.000219709	9.27147775802e-05	0.154451	0.00543329519466
0.29123789758	0.000241456	9.2523725533e-05	0.156492	0.00542730879576
0.293772486676	0.000211712	9.33674319035e-05	0.155253	0.00547805552666
0.296307075772	0.000229938	9.40520592231e-05	0.155973	0.005520313744
0.298841664868	0.000235359	9.45969421875e-05	0.155116	0.00555441570828
0.301376253964	0.00019174	9.43555519981e-05	0.152924	0.00552933281343
0.30391084306	0.0001793	9.36896404867e-05	0.153371	0.00548092975589
0.306445432156	0.000203764	9.48243208682e-05	0.1548	0.00555396052766
0.308980021252	0.000207307	9.64194414495e-05	0.154978	0.00564676700153
0.311514610347	0.00023219	9.62751432947e-05	0.155656	0.005650532698
0.314049199443	0.00020676	9.60439884181e-05	0.155584	0.00562550325674
0.316583788539	0.000204886	9.5644679782e-05	0.15589	0.00560704343729
0.319118377635	0.000193103	9.49896038601e-05	0.154317	0.00556279909381
0.321652966731	0.000181144	9.48277440093e-05	0.154506	0.00554670611926
0.324187555827	0.000130518	9.37233335384e-05	0.153263	0.00547023397486
0.326722144923	0.00015174	9.20626968544e-05	0.153904	0.00537962361958
0.329256734019	0.000205348	9.17664928325e-05	0.156465	0.00537603537896
0.331791323114	0.000178404	9.08586343311e-05	0.15513	0.00531161904855
0.33432591221	0.000208672	9.0496513716e-05	0.156755	0.00530408141512
0.336860501306	0.000176174	8.92211244969e-05	0.155552	0.00521164611685
0.339395090402	0.000137975	8.84283512058e-05	0.153378	0.00516307033459
0.341929679498	0.000157732	8.83709018554e-05	0.154548	0.00516996696714
0.344464268594	0.000225001	8.9294916392e-05	0.159793	0.00523900392427
0.34699885769	0.000161102	8.78702367552e-05	0.155879	0.00513198379068
0.349533446786	0.000116482	8.64918822893e-05	0.152961	0.00504129860329
0.352068035881	0.000181841	8.65514573796e-05	0.155945	0.00505667885727
0.354602624977	0.000161299	8.65030430906e-05	0.156645	0.00505236050678
0.357137214073	0.000157325	8.61243304789e-05	0.156888	0.00503565349743
0.359671803169	0.000139556	8.71845332707e-05	0.155528	0.00509321594321
0.362206392265	0.000112632	8.71440995896e-05	0.154128	0.00508019200875
0.364740981361	0.000163555	8.77346732375e-05	0.156225	0.00512481589416
0.367275570457	0.000156271	8.89054255112e-05	0.158055	0.00519615852778
0.369810159553	0.000120342	8.77640487852e-05	0.155398	0.00511379039938
0.372344748648	0.00012627	8.79542145412e-05	0.154632	0.0051311304333
0.374879337744	0.000126639	8.72416675319e-05	0.155441	0.00509144507421
0.37741392684	0.000124953	8.72193595948e-05	0.156387	0.0050831904132
0.379948515936	0.000146424	8.78476911132e-05	0.157341	0.0051278924969
0.382483105032	0.000139141	8.77402406588e-05	0.157308	0.00511295355995
0.385017694128	0.000195299	8.83751474715e-05	0.16159	0.00516306166728
0.387552283224	0.000135821	8.76498408212e-05	0.157923	0.00511499308804
0.390086872319	0.000134631	8.79055728772e-05	0.158065	0.00513095984188
0.392621461415	0.00018182	8.86050047933e-05	0.161185	0.00518008337343
0.395156050511	0.000152197	8.83764403308e-05	0.159983	0.00516429484922
0.397690639607	0.000100524	8.78958023496e-05	0.158858	0.00512032800683
0.400225228703	0.000163045	8.77421531184e-05	0.161585	0.00511900182335
0.402759817799	0.000142797	8.78688131471e-05	0.159931	0.0051256835976
0.405294406895	0.000143681	8.75832287444e-05	0.15967	0.00511019496626
0.407828995991	0.000182929	8.82352892887e-05	0.163151	0.00515157701814
0.410363585086	9.25106e-05	8.69239044223e-05	0.157978	0.00505994038143
0.412898174182	0.000137599	8.78567233117e-05	0.161396	0.00511638593483
0.415432763278	0.000144552	8.89007385821e-05	0.162892	0.00511744381956
0.417967352374	0.000157439	8.79829486733e-05	0.1645	0.0051409711357
0.42050194147	0.000139842	8.79187791249e-05	0.162961	0.00513764872673
0.423036530566	0.000177855	8.83226743411e-05	0.165471	0.00516341333384
0.425571119662	0.000165485	8.8025963977e-05	0.164538	0.00513786415726
0.428105708758	0.00012235	8.7264342032e-05	0.162601	0.00508711046919
0.430640297853	0.000130872	8.73790061094e-05	0.163154	0.0050927581172
0.433174886949	0.000155535	8.7405920764e-05	0.164714	0.00509922401794
#0.435709476045	7.50534e-05	8.66487222795e-05	0.161866	0.00503671619788
0.438244065141	0.000103333	8.70251981919e-05	0.162958	0.00507166623184
0.440778654237	0.00017809	8.79345530956e-05	0.168824	0.00513141199143
0.443313243333	0.000151034	8.75917763207e-05	0.166717	0.00510975758782
0.445847832429	0.000140369	8.78054526274e-05	0.167694	0.00513042384575
0.448382421525	0.000117783	8.7065414105e-05	0.165737	0.00507462861376
0.45091701062	0.000116502	8.721410885e-05	0.166881	0.00508216129975
0.453451599716	9.9974e-05	8.70647055213e-05	0.165468	0.00507110337128
0.455986188812	0.000119015	8.69419979155e-05	0.1673	0.00506519584662
0.458520777908	9.49856e-05	8.65785168803e-05	0.165056	0.00503446657321
0.461055367004	0.000148212	8.73258314913e-05	0.169202	0.00509505557649
0.4635899561	0.000136407	8.72492389383e-05	0.16928	0.00508824317522
0.466124545196	9.7217e-05	8.62616689079e-05	0.167665	0.00501826297137
0.468659134291	0.000151594	8.66802731098e-05	0.170881	0.00505232653844
0.471193723387	0.000112803	8.57532674447e-05	0.167949	0.00499072315692
0.473728312483	0.000103073	8.58847929816e-05	0.169868	0.0049942626274
0.476262901579	0.000116172	8.6039318961e-05	0.170555	0.00500935637855
0.478797490675	0.000167283	8.65438894008e-05	0.174354	0.00504737469626
0.481332079771	0.000169607	8.67229376316e-05	0.175742	0.00505952728957
0.483866668867	0.000138936	8.60895780272e-05	0.173039	0.00502265776097
0.486401257963	0.00017463	8.65432832813e-05	0.175573	0.00505144627358
0.488935847058	0.000100977	8.60913184126e-05	0.173254	0.00500960717115
0.491470436154	0.000113595	8.58336253731e-05	0.173588	0.00499645652766
0.49400502525	8.75706e-05	8.58935264708e-05	0.173224	0.00499558664195
0.496539614346	0.000144141	8.60633671153e-05	0.176591	0.00501337119668
0.499074203442	0.000181313	8.81073858411e-05	0.179125	0.00513469965267
0.501608792538	0.000178072	8.89323983803e-05	0.179229	0.0051780342846
0.504143381634	0.000167135	8.98210515227e-05	0.181045	0.00523657194352
0.50667797073	0.000166378	9.02263511958e-05	0.180962	0.00525387145189
0.509212559825	0.000142271	9.08200772703e-05	0.179592	0.00529160766937
0.511747148921	0.000145216	9.18552207125e-05	0.180545	0.00535375819281
0.514281738017	0.000168748	9.44366721219e-05	0.182322	0.00550728690125
0.516816327113	0.000149961	9.54250141649e-05	0.181628	0.00555448591634
#0.519350916209	7.3307e-05	9.61039150329e-05	0.178314	0.00558149976879
0.521885505305	9.7163e-05	9.70849038906e-05	0.180243	0.00563375126835
0.524420094401	0.000173521	9.9271427989e-05	0.18501	0.00578678206095
0.526954683497	0.000178447	0.000100216785371	0.185741	0.00584385240786
0.529489272592	0.000155989	0.000100858529898	0.186066	0.00586933660405
0.532023861688	0.000123074	0.000102316940986	0.186355	0.00595835096555
0.534558450784	0.000112211	0.000102531221862	0.184194	0.00596458255755
0.53709303988	0.000137064	0.000104274678108	0.187084	0.00606596782805
0.539627628976	0.000108401	0.000104193113376	0.18566	0.00605906309167
0.542162218072	0.000138024	0.000105827388936	0.187832	0.00616234125339
0.544696807168	0.000139135	0.000107305556969	0.188952	0.00626300081817
0.547231396264	0.000138164	0.00010787154427	0.18977	0.00627420600573
#0.549765985359	0.000104203	0.00010836586661	0.188947	0.00629543230926
0.552300574455	0.00013638	0.000109824147052	0.191048	0.00639540376475
0.554835163551	0.000178157	0.000111004105053	0.193737	0.0064687520794
0.557369752647	0.000164011	0.000112344200172	0.195769	0.00655573951756
0.559904341743	0.000169408	0.000112942573576	0.195459	0.00656666417235
0.562438930839	0.000190257	0.000114559677395	0.197505	0.00667767230962
0.564973519935	0.000188283	0.000114758083484	0.19781	0.0066769932752
0.56750810903	0.000168726	0.000115849328254	0.198804	0.00672456977409
0.570042698126	0.000128702	0.000115730225104	0.195877	0.00673633335421
0.572577287222	0.000174443	0.000117183986563	0.200417	0.00681373940172
0.575111876318	0.00012822	0.000117894680149	0.19859	0.00684672337468
0.577646465414	0.000228601	0.000120749200151	0.204974	0.00705264095012
0.58018105451	0.000177392	0.000120889604493	0.202703	0.00704178511569
0.582715643606	0.000159335	0.000121356704355	0.202725	0.00706511743401
0.585250232702	0.000190715	0.000122334138697	0.205341	0.00712193580358
0.587784821797	0.000136964	0.000123309485543	0.203925	0.00718292260003
#0.590319410893	0.000115113	0.00012531858755	0.203266	0.00727221148427
0.592853999989	0.000185714	0.00013252855516	0.208415	0.00773061767008
#0.595388589085	0.000126849	0.000135413877477	0.205935	0.00786010098096
#0.597923178181	0.00011461	0.000137288465458	0.205792	0.00797355359424
0.600457767277	0.000178151	0.000140243265873	0.210267	0.00816742922577
0.602992356373	0.00017131	0.000143745973384	0.211374	0.00836583227047
0.605526945469	0.000159747	0.000146913185306	0.21114	0.00855066003959
0.608061534564	0.000202871	0.000150451208977	0.215789	0.00876133121476
0.61059612366	0.000201589	0.000154130003715	0.215017	0.0089888944992
#0.613130712756	0.000103239	0.000154945241619	0.211098	0.00900251952714
#0.615665301852	5.92314e-05	0.000156410434715	0.207501	0.00906371093706
#0.618199890948	0.000154824	0.000160555469611	0.212996	0.00934264928456
#0.620734480044	0.000160176	0.000165256156291	0.217364	0.00962309816089
0.62326906914	0.00017204	0.000167468883856	0.216843	0.00974459605553
#0.625803658236	9.556e-05	0.000169734316513	0.215462	0.0098364545285
0.628338247331	0.000177332	0.000173806769966	0.220913	0.0100942358523
0.630872836427	0.000231143	0.000176264690824	0.225894	0.0102568414187
#0.633407425523	0.000119344	0.000178498597879	0.220424	0.0103825010656
#0.635942014619	4.4795e-05	0.000178997023345	0.214835	0.0103671164938
#0.638476603715	6.40035e-05	0.000183452801605	0.220742	0.0106291537553
#0.641011192811	8.81928e-05	0.000185978780319	0.219201	0.0108021207791
#0.643545781907	0.000145209	0.000189983147564	0.225863	0.011019829514
0.646080371003	0.000230376	0.000195190517825	0.233221	0.011360022627
#0.648614960098	0.000130249	0.000196386637457	0.230399	0.0113760553069
#0.651149549194	0.000138267	0.000198481354539	0.228012	0.011516178265
#0.65368413829	9.62324e-05	0.000201475476252	0.227684	0.0116940633504
#0.656218727386	0.000156025	0.000205555347154	0.231551	0.0119493337944
#0.658753316482	6.73346e-05	0.000207416859557	0.228126	0.0120132970321
0.661287905578	0.000224324	0.000212944748805	0.240688	0.0124238988763
#0.663822494674	0.000158523	0.000213334680219	0.239216	0.0123799226394
#0.666357083769	0.000147231	0.000215741893483	0.235436	0.0125457465506
#0.668891672865	0.000162972	0.000215070264302	0.23699	0.0124694237227
#0.671426261961	0.000114049	0.000217993744367	0.236933	0.012643873374
#0.673960851057	3.22689e-05	0.000218103512135	0.230896	0.0126126623125
#0.676495440153	0.000129676	0.000230152764747	0.244722	0.013414713647
#0.679030029249	0.000173474	0.000232697240201	0.242635	0.0135831652958
#0.681564618345	0.000173928	0.000234058759599	0.244869	0.0135842774642
#0.684099207441	0.000154311	0.000242003128643	0.248371	0.0140701182813
#0.686633796536	0.000180128	0.000246586128708	0.249072	0.0143857410107
#0.689168385632	0.000213855	0.000251515361133	0.255583	0.0146727830388
0.691702974728	0.000257351	0.000256539820474	0.256923	0.0149696932784
#0.694237563824	0.000193906	0.0002590648125	0.254225	0.0150659145131
#0.69677215292	0.000159983	0.000267110504598	0.258034	0.0154833995011
#0.699306742016	0.000220257	0.000273492104695	0.259534	0.0159622169533
#0.701841331112	0.000137131	0.000275881905394	0.257387	0.0160252661047
#0.704375920208	4.77938e-05	0.000278550814141	0.247495	0.0161840210287
#0.706910509303	0.000248207	0.000292418889069	0.262824	0.0170709886657
#0.709445098399	0.000199241	0.000303711761224	0.262074	0.0177364268221
#0.711979687495	0.000100017	0.000305752754554	0.262311	0.0176904129511
#0.714514276591	4.30311e-05	0.000307598629614	0.25449	0.0178018596081
#0.717048865687	9.93551e-05	0.000316510080615	0.256482	0.0183707896195
#0.719583454783	0.000246955	0.000308382343361	0.234099	0.0179416568993
#0.722118043879	-1.69221e-05	0.000122695837581	0.0345518	0.00701623589377
#0.724652632975	4.38922e-09	5.28004063173e-05	0.00549842	0.00289198042821
#0.72718722207	-2.07676e-05	4.82022994122e-05	0.00384469	0.00248749184546
#0.729721811166	4.62494e-05	6.39158220804e-05	0.00792904	0.00366314442334
0.732256400262	0.000109125	7.7830558592e-05	0.0120554	0.00465581899397
#0.734790989358	-4.36679e-06	5.4595627438e-05	0.00460309	0.00297208554676
#0.737325578454	-8.63998e-06	5.32642616216e-05	0.00399206	0.00284596573122
#0.73986016755	4.11573e-05	6.64919145539e-05	0.00686535	0.00389063103787
#0.742394756646	-2.35974e-05	5.47590031332e-05	0.00311142	0.00276226972694
#0.744929345742	2.47105e-05	6.975739844e-05	0.00602067	0.00402316323094
#0.747463934837	3.50855e-05	8.15131522631e-05	0.00764834	0.00476288598896
#0.749998523933	-6.14631e-06	7.12797846556e-05	0.00489677	0.00402518712673
#0.752533113029	5.80468e-06	7.90024040626e-05	0.00535237	0.00447581268838
#0.755067702125	-7.18724e-05	6.43172677817e-05	0.00196427	0.00290619653494
#0.757602291221	1.97399e-05	0.000112047083312	0.00843035	0.00652269694208
#0.760136880317	6.70237e-05	0.0001354641623	0.0107663	0.00810036882993
#0.762671469413	8.53231e-05	0.000135059512998	0.00909009	0.00821408804187
#0.765206058508	2.42697e-05	0.000111400353983	0.00352198	0.0060910195807
#0.767740647604	4.09696e-05	0.000165444622427	0.00522158	0.00914571695736
#0.7702752367	-1.73363e-05	0.000141875982648	0.00258288	0.00778787428125
#0.772809825796	-0.000126187	0.000141041266616	0.0	0.0
#0.775344414892	-7.6164e-05	0.000297083049343	0.0	0.0
