#Executed at: 2018-11-12 20:26:18.625841
#Loaded File	 = ../rawdata/DD226_1_ZFCW_100OE.DAT
#Rescale Factor	 = 0.20864318265697
#[[Data]]
#T/K	M/kAm-1	sM/kAm-1	M_raw/memu	sM_raw/memu
10.0032601	0.0865316705944945	0.05242554252456178	0.414735192842419	0.25126889772744004
10.0198355	0.08376383476802066	0.062097918919313606	0.401469310913152	0.297627356564095
10.5575829	0.03857311274833035	0.07020040489827926	0.184875979445484	0.336461532096621
11.0313854	-0.019579182700731987	0.05931964163351904	-0.0938405101542287	0.284311430060221
11.5022869	0.1067800902439716	0.06263874613920434	0.511783269811066	0.30021947202650096
12.0251937	0.009076076386341808	0.07207059309028498	0.043500469417511595	0.345425104105971
12.5033455	0.08180732069545649	0.057943718609350464	0.392091990036194	0.277716807572935
13.0274286	4.047996581151321e-05	0.0767731279678569	0.000194015281477307	0.367963750313757
13.5116196	-0.006602281180750609	0.04896197382780206	-0.031643886450895505	0.234668457431942
14.0450068	0.1357324844163188	0.06023927465259872	0.65054837971618	0.288719113107271
14.5630627	0.06209674294402007	0.06129141520716317	0.297621720265422	0.29376188776765505
15.0576849	0.04543361986367295	0.05380615025593807	0.21775750966361698	0.2578859734152
15.5089769	0.003409938926855976	0.056527629088037115	0.0163433996904766	0.270929672219265
16.0245667	0.03124702432891491	0.059765806106923954	0.14976297778340597	0.286449839126471
16.5536528	0.07555881637817538	0.06102033509952129	0.36214371069291795	0.29246263559852204
17.0301113	0.020464402869751035	0.05573476553438122	0.09808325682702289	0.26712957895209394
17.5515118	0.10985443931017479	0.06737185844676943	0.526518230364547	0.322904671932346
18.0697384	0.03841795661270782	0.06022239466977373	0.184132335998108	0.288638209515742
18.5061989	0.02269424000622166	0.06634763588158499	0.108770580074659	0.31799570461243903
19.0262241	0.061791669317724444	0.059732602947037805	0.29615954152365503	0.28629070064198603
19.5308514	0.06048743811895348	0.053065309243847406	0.28990852875552997	0.254335217513874
20.8698997	0.08572087167994037	0.059294802175147085	0.41084913769204695	0.284192377723808
21.03138545	0.1402602684693804	0.07593852650750153	0.672249467647271	0.36396361261585997
21.5106297	0.019748020439618656	0.0640272071163694	0.0946497277703358	0.30687418731354604
22.0211468	0.08740036787652514	0.0521048540452329	0.418898747438204	0.249731878998886
22.54493905	0.04012138712646535	0.059581345813104127	0.192296659855064	0.28556574460935896
23.001812	-0.032956856185114895	0.05940439066699039	-0.157957982453226	0.284717621302092
23.5563831	0.080059988568771	0.05908462122593276	0.38371725138222	0.283185007406035
24.0190697	0.04136935364759244	0.051963015007938186	0.198278003243498	0.249052062694857
24.5765305	0.08280577546481552	0.06105625520732121	0.39687745561740395	0.292634796065701
25.0129948	0.04012133501611397	0.05933240416754718	0.192296410096837	0.28437259924804503
25.5255489	0.07176821065755346	0.05553970507210224	0.34397582390960496	0.266194679187841
26.0387535	0.0966705827085503	0.06863316713525065	0.463329697512745	0.328949962616753
26.5165215	0.10531451236920839	0.07221077351755845	0.504758943129984	0.346096970905012
27.0191574	0.03951205394632394	0.054251798915358515	0.189376204116315	0.260021910251215
27.550705	0.06740193316577905	0.05334004922700994	0.323048816201172	0.255652010996718
28.0144272	0.012784348578504691	0.0648785099131771	0.061273742164504	0.310954372373833
28.5391693	0.10420569639067197	0.05955269380334456	0.49944453043546805	0.285428419203397
29.0114136	0.08407232131804922	0.05628632205749442	0.402947847360402	0.26977311858798997
29.5392303	0.06288555340500858	0.06332961666988106	0.301402387579558	0.303530725822953
30.0113544	0.06985791222927795	0.06886757939751306	0.334820008685025	0.330073470508443
31.3534889	0.020493799498599648	0.06951946126750376	0.09822415109672421	0.33319785665751
31.5438137	0.069958233827015	0.05289461181476135	0.33530083722904697	0.253517086641289
32.0589828	0.05614266032964417	0.06521345395668945	0.269084566362028	0.31255971619215
32.5710793	0.059671498533662465	0.06348875922065657	0.285997835030001	0.30429347564659404
33.049099	0.08754086348728628	0.0671956160786053	0.419572124871255	0.32205996487832306
33.5579529	0.1232054122525396	0.0599381363936635	0.590507730392042	0.28727579607625003
34.0289612	0.016060837563927052	0.05960271124586396	0.07697753341086949	0.28566814638682303
34.57775305	0.11586080517439085	0.06131157053702742	0.5553059711750921	0.293858489677229
35.0021248	0.09323127304673239	0.062087334815456675	0.446845527658643	0.297576628312531
35.5341148	0.11863814190584548	0.0656400257156861	0.5686173897227129	0.31460421989250803
36.0630493	0.06978416540197328	0.05936090119677033	0.334466549605435	0.28450918185218405
36.5271492	0.057175911005167855	0.055108137594849456	0.27403680425624405	0.264126231650965
37.0494957	0.07215954206364474	0.061557374906537836	0.345851425120763	0.295036598477048
37.5241585	0.09980904372922679	0.06663066733505804	0.47837193843674597	0.31935223804846496
38.0037575	0.13140616225666057	0.05670775564109535	0.629812872787247	0.271792995673041
38.5568962	0.09573158641515546	0.05619678158061231	0.458829208776726	0.269343962572721
39.0066757	0.12490908523935593	0.06946124243981452	0.598673216391253	0.332918821287421
39.52322195	0.09549873934920002	0.05787645246986299	0.457713202670079	0.277394409598408
40.024044	0.015860385178489145	0.060910038783172284	0.0760167908508431	0.29193399950821497
40.5502129	0.07193045543129888	0.06336361701139097	0.344753442289843	0.303693685096661
41.7072487	0.1340719850095815	0.051799005983182884	0.642589819145968	0.24826598848592896
42.0581894	0.09416213776185477	0.04510283067812928	0.45130704278350003	0.216172079546365
42.5465298	0.11387786977894618	0.06175925990625786	0.545802016288127	0.296004207373486
43.0338326	0.08054970101337706	0.058018278379470316	0.38606438028607304	0.278074162983116
43.5123672	0.08959925504401119	0.06330804921354291	0.429437731456202	0.30342735577240304
44.0268059	0.11190824860124128	0.06061246126536514	0.53636187473822	0.290507748652483
44.5045776	0.09546555768527265	0.05581309773830156	0.457554167212966	0.267505015153377
45.0426979	0.1359601572030813	0.05570868311931109	0.651639586166653	0.267004569283731
45.545639	0.09657375536300511	0.05714524007587122	0.46286561647107305	0.273889802428022
46.0282536	0.09562142254469574	0.06584621376123552	0.45830120748256997	0.315592452735411
46.5061646	0.054601116361679164	0.0551423344106896	0.261696143944702	0.26429013260092493
47.0512733	0.15679936916324327	0.06272292916745881	0.751519254866031	0.300622950478001
47.5232582	0.1332280973849589	0.0631246983773421	0.6385451740544	0.302548578743286
48.0411911	0.15055928967307855	0.0640263457135647	0.7216113546379941	0.30687005872044404
48.5546303	0.07583746564913527	0.06070454579427908	0.363479240890509	0.290949097982671
49.0565987	0.07060599328745326	0.0723175493381811	0.338405465198144	0.34660873371107603
49.54430195	0.08664061299369857	0.06468386280745071	0.415257339781594	0.310021453774492
50.0308952	0.07741444330883215	0.07016131326969223	0.37103749244522	0.3362741709373
50.5280724	0.09593449081912536	0.058100330603052974	0.45980170354691696	0.278467428761263
51.034317	0.08678412714564522	0.062385958823943696	0.415945184695188	0.29900789486379903
52.1484795	0.08708249606509852	0.06743099067355056	0.417375228637452	0.323188085107069
52.5544071	0.07789286768466673	0.06190889884470925	0.37333051908401105	0.296721407602824
53.0597572	0.12289755905078573	0.0682392865288426	0.5890322295017971	0.327062143415607
53.5030708	0.10786042638460622	0.05362056441769174	0.5169611822972401	0.256996484308089
54.0571747	0.1340016350710643	0.07929212038728008	0.642252640918425	0.38003695772626395
54.5643005	0.026316499668993392	0.06572106925549034	0.126131605805977	0.31499265117874603
55.0109634	0.05631851792247973	0.06884144765852042	0.26992742923727797	0.329948224436849
55.5050926	0.15341938336455346	0.061150578778539515	0.735319416675071	0.293086876838325
56.0108414	0.06543718233222476	0.06126973960199225	0.313632017585784	0.293657999373628
56.5332756	0.055354770383116016	0.06294244022973174	0.265308310955574	0.301675038830362
57.0358772	0.13023106564552023	0.05847606049986051	0.62418078552623	0.280268253940513
57.555378	0.10617587427065638	0.051644514444237274	0.508887340187961	0.24752553036514
58.0477486	0.027602051420052804	0.050943461390080096	0.13229309037829098	0.244165473040335
58.5547485	0.04514053309248198	0.07244951663848048	0.216352782380134	0.34724123604649304
59.0190659	0.09784291958632572	0.05912875637959626	0.46894855772589106	0.283396541533829
59.540699	0.12245284201280461	0.054878349015799785	0.5869007578077889	0.26302488447957206
60.0431442	0.16052498490021175	0.05988418752388189	0.769375652997638	0.287017226066463
60.5091114	0.1434528890498456	0.06972991265138258	0.6875512883912259	0.33420652313392596
61.0535965	0.10655943346162496	0.06265075223573256	0.510725690169418	0.300277015706459
61.504776	0.07614850567520576	0.07282784881756299	0.364970015820749	0.34905453363074496
62.5488777	0.14095904614302457	0.052464523274937946	0.675598619365269	0.25145572746172495
63.0018196	0.10723971227478084	0.05872731692930071	0.5139861792229921	0.281472493763931
63.5499153	0.14690990907700496	0.056861298096457465	0.7041203417536981	0.27252890495800697
64.0003052	0.16616295880823828	0.07456527437110054	0.796397738436662	0.357381791350898
64.5189896	0.126546620398823	0.06470920503998275	0.6065217122712231	0.31014291584293496
65.00385285	0.16134416943594623	0.06317737303527092	0.773301899354229	0.302801041619178
65.5228844	0.15929973761891028	0.06328428733810952	0.763503200010205	0.303313468152732
66.0449905	0.18167633494457483	0.07296618846814074	0.870751359478966	0.349717577823304
66.5441284	0.14120305825794247	0.051036264500545506	0.6767681381188201	0.244610266439686
67.057869	-0.012861426410495681	0.05779223588974673	-0.06164316632209899	0.27699077033714004
67.5516129	0.15673942929985915	0.05796163248661989	0.751231970792711	0.27780266648786
68.0065994	0.15559712813178833	0.06588243153370002	0.745757067881798	0.31576603987112895
68.5168304	0.20415374134095304	0.052719787299643994	0.9784826838871701	0.252679175174971
69.0054932	0.08638482148971657	0.060633475908518523	0.414031363927868	0.290608469140379
69.5269852	0.11960794152909458	0.06678333543325424	0.5732655148658361	0.320083956651738
70.0417328	0.06830517574527878	0.0592390602163037	0.327377941974645	0.28392521366824897
70.5340195	0.17522061357274904	0.06279255073688834	0.8398099153847219	0.300956637725976
71.0211945	0.08073312306940728	0.06760442684527079	0.386943498662693	0.32401934242164604
71.5096664	0.10449599956905026	0.06879710486191468	0.5008359163158089	0.329735695103079
72.0294952	0.14446303628466733	0.06620477963200708	0.692392794458944	0.31731101294047204
72.9829712	0.17277047099200296	0.05715509786989007	0.828066696413727	0.27393704956973697
73.0377655	0.09167108568381017	0.06669341474425793	0.439367749841731	0.31965297832859696
73.5585632	0.1582900378042175	0.06724968204805933	0.7586638383697489	0.322319096131813
74.0005188	0.2154278412284172	0.06468695536187467	1.0325179978806298	0.310036275990989
74.5526352	0.15898432143265517	0.06657800430379329	0.761991450705778	0.31909983089768196
75.0495377	0.17364725510585705	0.07529529502847798	0.832269010156686	0.360880686680623
75.5283699	0.13164331888891667	0.06535640766042948	0.6309495340921409	0.31324487494941
76.0062408	0.11728572659067167	0.065243524551177	0.5621354366679739	0.312703840692671
76.5603333	0.1178293901010522	0.05740637572639593	0.564741146106726	0.275141392090331
77.0106201	0.16714693238827769	0.0529412525886977	0.801113797535785	0.253740629885513
77.5026855	0.16973736597301473	0.06203811797808582	0.813529413285838	0.297340738326843
78.0768051	0.12155762905635797	0.060117518274882535	0.582610116987195	0.288135550413462
78.5920677	0.2128961896733844	0.049829678311291606	1.02038411685565	0.23882725367172203
79.029007	0.20180368299541573	0.06699058623266652	0.967219155812059	0.32107728313752604
79.5095215	0.21258483601998934	0.07545510819648946	1.0188918387498902	0.361646650686618
80.069458	0.15350685851557716	0.06358675278567412	0.735738673848537	0.30476314622853995
80.5483932	0.21289583500904205	0.06774301245379406	1.02038241699497	0.324683565459075
81.0303268	0.20696423198754935	0.05684443008228738	0.991953004895535	0.27244805873070504
81.5951538	0.1147189075628166	0.05804704416149486	0.5498330024586799	0.278212033684944
82.05506515	0.1889794572331993	0.0730910249841619	0.905754287423329	0.350315903224745
82.5538025	0.17038324913192315	0.06551767468598273	0.8166250483824821	0.31401780710803406
83.5907669	0.20218613445570072	0.05862254767388809	0.9690521965825009	0.280970348167423
84.0831757	0.28507913904121174	0.05615638732227438	1.36634773018158	0.269150358076166
84.5173492	0.1122507103722735	0.06759382263174965	0.5380032500598151	0.32396851778704205
85.0556793	0.2521920863090735	0.0721986601879034	1.20872430672083	0.346038913270438
85.61933135	0.21785344173116902	0.0726449708221133	1.0441435898212001	0.34817802286667
86.0070724	0.20742894957462324	0.06552583720623552	0.9941803366547419	0.31405692902013704
86.5044556	0.16477295122906505	0.07054433683680313	0.789735610484662	0.338109953742342
87.0837402	0.13384731005475323	0.06566032113436636	0.641512980919254	0.31470149322979996
87.5823364	0.150830063483228	0.06389807842684393	0.722909138762552	0.306255290075299
88.09994505	0.13352432928880378	0.05867332756578732	0.639964975555089	0.281213729672884
88.6107483	0.22108633168059874	0.0641259685185791	1.05963841648297	0.30734753804062
89.1600952	0.21323153902693537	0.06724385688647508	1.02199140327297	0.322291176879863
89.6539459	0.23131940726865302	0.05728080614655575	1.1086842346004901	0.27453955320807705
90.063942	0.18994625582404964	0.06435091945538965	0.9103880290032771	0.30842569901355904
90.5200653	0.1665040809395825	0.06205725751431825	0.798032693037144	0.297432471667893
91.11349105	0.23561447222718587	0.06244849332725071	1.1292699297755602	0.29930761471330797
91.5823288	0.23134764377980388	0.05678224955650168	1.10881956857494	0.272150035450031
92.0212402	0.18872689662111292	0.06527964144511567	0.9045437968198491	0.31287694433056
92.6341782	0.18187609841010827	0.06861439519225981	0.871708800134297	0.328859991102938
93.9628372	0.15936406208976406	0.05881858087365177	0.7638114989444651	0.28190991013761196
94.1082077	0.17543070500536617	0.05367216513492953	0.840816856660932	0.257243799924064
94.5111313	0.18913382912386476	0.05230975812805072	0.9064941720852651	0.250713957973183
95.0124664	0.24984806589695552	0.06370301405993485	1.19748971768577	0.30532037159665504
95.60103605	0.19954916068029696	0.07197930387904898	0.9564135196709278	0.344987566631353
96.0494232	0.18848562870712787	0.06656275095955501	0.9033874306692151	0.319026723576158
96.5301743	0.2772760246337605	0.055596077228433016	1.32894840417398	0.266464863699086
97.089859	0.239263630129451	0.0666075611308452	1.1467598753170098	0.319241492976814
97.5459099	0.21393015682335764	0.06264529063542196	1.02533978871996	0.30025083895703897
98.0418625	0.22434581988957264	0.06540013800286013	1.0752607251894701	0.313454468868913
98.5524139	0.23360126373968018	0.08566828845636756	1.1196208798431901	0.41059711304929
99.0076256	0.24406106118640547	0.06678457693197577	1.1697533467348702	0.320089906995793
99.5183868	0.18776700800394625	0.05422299290744099	0.899943173857033	0.259883846751844
100.0103149	0.1830358722380039	0.06950839412947217	0.877267447261543	0.333144813285133
100.531044	0.26625688562542593	0.07206224510261627	1.2761350849559199	0.34538509327234396
101.0258713	0.2518090218112761	0.05199259712370075	1.20688832774026	0.24919384597953398
101.562561	0.24454089030750714	0.06426047016921473	1.1720531061374602	0.307992187191974
102.0681915	0.2405087266970677	0.06154294025709558	1.1527274633865598	0.29496741505462104
102.5058136	0.24498681694414157	0.07061622532548516	1.17419037528259	0.338454506043388
103.0165939	0.29647407148814686	0.07272448514268458	1.4209621791265499	0.348559124801364
103.5088577	0.3234489020001897	0.05659951457822742	1.5502490801818898	0.271274210148925
104.3011703	0.29597845258922156	0.05954820236632329	1.4185867413451	0.285406892322125
104.5488281	0.3389103254637546	0.05466787634702204	1.62435369873051	0.26201611598736696
105.0363998	0.20756479607219078	0.06294849071790004	0.994831431484861	0.301704038043714
105.56521605	0.281674822201197	0.0712115017154748	1.35003127643187	0.3413075893908
106.0182571	0.26082263488396934	0.06513741656931242	1.25008941851116	0.312195278752073
106.5126724	0.2446368105832331	0.0565620115231587	1.1725128397098898	0.271094462818621
107.0232849	0.304007065465099	0.059628968661497896	1.45706685257441	0.28579399481043105
107.5113297	0.3011786520371309	0.07416704757374258	1.4435106299749	0.355473141414261
108.0076141	0.2872511805871422	0.07899983510115668	1.37675804658047	0.378636071857858
108.506424	0.25038698598894693	0.07422598773748411	1.2000726925288898	0.355755634055482
109.0169601	0.3177699696447347	0.06361164652382317	1.5230306861604002	0.30488245872095904
109.5356979	0.27921058266450893	0.06591188736919866	1.33822049256006	0.31590721791070603
110.0264359	0.32552937447570096	0.0636864968356007	1.5602205177770099	0.305241206660021
110.5291672	0.3194090074041399	0.06096893145178886	1.53088638380905	0.292216264511397
111.0267334	0.34294186404926236	0.0537975233879452	1.6436763458171202	0.25784462594396695
111.5206757	0.3970573686307242	0.06264491191118883	1.90304501481616	0.30024902378039
112.0181961	0.2899355990991013	0.08246550401814134	1.38962412002593	0.39524657823938003
112.5324173	0.31957385085271967	0.061415210444020166	1.53167645730429	0.29435522245168605
113.0394058	0.36257762184394426	0.06866181049428999	1.7377880131365602	0.32908724656092303
113.5464325	0.33583772109698856	0.07110624156878836	1.60962710029754	0.340803091015411
114.6913605	0.3211863237270921	0.07056283437913762	1.53940483286796	0.338198610089024
115.0377426	0.3410617822963809	0.06650844079140156	1.6346653552400998	0.31876642190963894
115.50742725	0.2994182766889227	0.05992103021821352	1.43507337683396	0.287193808372496
116.0365753	0.3389404443548636	0.06354894563700135	1.6244980547105399	0.30458194141661504
116.5373001	0.3973876882083365	0.07870634726851529	1.90462819416286	0.37722942233831
117.0301514	0.3382807830844291	0.06865153777405746	1.62133638289345	0.329038010731112
117.5297852	0.3395867971932022	0.07330614535503036	1.6275959409204201	0.351346947556647
118.057457	0.331971165693274	0.06805188250009277	1.5910951964295301	0.326163939954735
118.5240326	0.36001880689645444	0.07616358948223267	1.72552394145732	0.365042310572175
119.0206299	0.4063174969472206	0.07529239214837391	1.94742762151614	0.360866773548801
119.518486	0.33419328822689565	0.05934332584118488	1.6017455445757	0.28442494542824903
120.0209351	0.3540758128658162	0.06061597541879314	1.6970399337128201	0.290524591538904
120.5199966	0.373222857602602	0.06553290244776974	1.78880926206066	0.314090791816152
121.038414	0.47864893073359455	0.06757789691569428	2.29410290160566	0.323892187873682
121.5042648	0.4537218860999919	0.06272883786569232	2.1746307754802396	0.30065127011039094
122.0034943	0.4193502440849228	0.058916625859030826	2.0098919060987295	0.282379827170752
122.5609741	0.4245257236330092	0.07122931689048757	2.0346973154208996	0.341392975238475
123.0587997	0.43444672576114013	0.06802788287726791	2.08224740549234	0.326048912842326
123.5605011	0.4678143021829095	0.07220320449822469	2.2421739173335102	0.346060693566652
124.0548935	0.448572589183299	0.06989252736203135	2.14995085615041	0.33498591457426896
125.1468277	0.41279640176648835	0.06795384337630545	1.9784801808989199	0.32569405101545196
125.5309525	0.5075597549191987	0.06249846919898969	2.4326687718988502	0.29954714265331805
126.0161667	0.4757911364694667	0.06395914312893844	2.28040586042878	0.306547965356211
126.5255737	0.4867317664729326	0.07203619901728514	2.3328428960612997	0.345260257727758
127.0138245	0.4405025920862954	0.06187662732717934	2.1112723956599395	0.296566734360598
127.5309601	0.4677061608481417	0.07566930605297212	2.2416556097933804	0.362673273525452
128.0444946	0.47839818589200916	0.05542502505155067	2.2929011137571798	0.265645032565837
128.5038147	0.4471039920706145	0.06415985592780836	2.14291205864942	0.307509956044399
129.0632324	0.5188791251740222	0.06489456331277704	2.4869210609536703	0.311031314258037
129.5145569	0.44933182816621875	0.06126205949390705	2.15358979116497	0.293621189601138
130.0160217	0.45352419418409884	0.06102454063900024	2.1736832634964998	0.29248279220956197
130.5659485	0.47446694859956556	0.07401704353716543	2.2740591978969	0.354754191316458
131.0001984	0.5279272864950464	0.056120296655759606	2.5302877370453603	0.268977380142954
131.5030518	0.5116270625481072	0.06991653802325606	2.45216285542036	0.335100994592312
132.0583496	0.5769505918409549	0.06225522214251521	2.76525014857312	0.298381290726709
132.5715027	0.46899555078487337	0.07089275143169237	2.24783549029708	0.339779860184778
133.0051575	0.5928898911019151	0.06725608928921696	2.84164516449447	0.32234980521646195
133.54381565	0.51363730175447	0.0790785344825639	2.4617976739692495	0.37901326789371703
134.015152	0.5238496784585711	0.06791569032530062	2.5107442849922	0.325511188338038
134.5214691	0.5883969516362644	0.06075331679688393	2.8201110821993502	0.291182851139538
135.5918579	0.5555304527181364	0.06740929122098695	2.66258617053155	0.32308408241554903
136.0386963	0.5363265720872679	0.0632977598552463	2.57054443503693	0.303378040198486
136.5523834	0.4751928525019327	0.07314410835835176	2.27753836214815	0.35057032502522695
137.0320892	0.6204478921905136	0.06397905205373586	2.97372712728693	0.30664338627792
137.5282288	0.5418243026620737	0.06463605093154094	2.59689435217678	0.309792297588793
138.0243683	0.5661372523629955	0.06634271527923505	2.71342320009459	0.31797212079682
138.5510712	0.6315054337341762	0.06464485724481392	3.02672450492875	0.30983450511822597
139.0626221	0.5986327456149887	0.07183365864251107	2.86916992921451	0.344289507702788
139.5533752	0.6123609146672696	0.06508576857047846	2.93496728179253	0.311947736521475
140.0559235	0.692977858277409	0.06468845961087868	3.32135394721587	0.31004348566343004
140.513504	0.6408046774994361	0.07265408561511029	3.0712945869551	0.34822170889983395
141.0131531	0.6508121614808058	0.07340140071331085	3.11925917345119	0.351803494265087
141.5147858	0.6739086366332404	0.06703048491468906	3.22995761496417	0.321268512400397
142.0126343	0.6838664159824742	0.06387725053228827	3.2776839735368597	0.306155464649467
142.5153046	0.6298533518108375	0.06327665046012354	3.01880628827628	0.30327686557656
143.0058899	0.6334210098526935	0.056194501896598095	3.0359056154453903	0.269333036339785
143.5146484	0.7821037145543105	0.0753990589720128	3.74852273913098	0.361378013946309
144.0308533	0.6315176532086294	0.06373591138431821	3.02678307130172	0.305478044250822
144.5297699	0.6579103648915979	0.06731089466023599	3.1532799515106498	0.322612480326768
145.0298615	0.6529726158303173	0.07831030968866783	3.1296139539045895	0.375331265040266
146.0724182	0.6768898570547524	0.07430302050924759	3.24424622187453	0.356124842245189
146.5703735	0.7280164434412266	0.06663239496772429	3.48928938952277	0.319360518370133
147.0113068	0.774354796145528	0.06796516015645153	3.7113831675902103	0.325748290890448
147.5502472	0.7264577527498807	0.07055892217583387	3.48181878506066	0.338179859400629
148.0661774	0.7007520582084432	0.06014723597441373	3.3586146898485003	0.288277983533743
148.5227051	0.7263934312168522	0.0725642936818373	3.48151050020702	0.347791347686352
149.0317993	0.7743644169519156	0.06318025721510988	3.71142927888062	0.302814865123029
149.5170135	0.724299890577468	0.06396469887214412	3.47147642857945	0.30657459332044606
150.039505	0.770492572844032	0.08213597447132627	3.6928720269322097	0.393667185408909
150.5440216	0.67505133269697	0.06283040315178874	3.2354344105593	0.301138059493121
151.0401001	0.7615774644042821	0.07137187194029646	3.65014305622624	0.342076223298601
151.542511	0.821895306402028	0.06825882002436451	3.9392387325365195	0.327155764952976
152.0577087	0.8724558322296478	0.06921080261287398	4.18156884456681	0.331718495334992
152.5137939	0.8215224294567435	0.06639057564114859	3.9374515811878097	0.31820150936971303
153.0239716	0.8542776324285072	0.061171348451929244	4.094443065666919	0.29318642321758
153.55444335	0.8257954059419655	0.07768777533150047	3.95793140914484	0.372347537754094
154.0159607	0.8953242066057604	0.06023527037318986	4.29117402833028	0.28869992110992
154.5005493	0.8174291534775865	0.07910093551414532	3.91783303469599	0.379120633163438
155.0598602	0.8664359002030814	0.06743456983132132	4.152716082881019	0.32320523955096303
155.501297	0.9422571654839449	0.06657583407845329	4.51611767748534	0.319089429286125
156.4720306	0.9058264116234662	0.07615834159135074	4.34150974926765	0.365017158104622
156.50263975	0.8622270290480997	0.07065573899378425	4.13254350354541	0.33864388998489
157.0444031	0.8854919419072047	0.08096718269566833	4.24404924537142	0.388065316415281
157.5237579	0.9376828405171138	0.07475363098953089	4.49419352492699	0.358284560451866
158.0387268	1.0490655146284469	0.056841609518435005	5.028036388580279	0.27243454013011403
158.5014267	0.9523030813466801	0.07176504685759982	4.564266463056981	0.343960660222427
159.0166397	1.0091466672273528	0.055518285527576504	4.83671047563768	0.26609201805962696
159.5543976	0.9806601699388396	0.07347876293559827	4.70017834970981	0.35217428146887797
160.0649414	1.0133578047915857	0.06529898260821373	4.85689391758199	0.31296964404330296
160.5527344	1.000632860375649	0.09123601950846036	4.795904891945539	0.437282533493852
161.0006104	1.0141247983122277	0.07690775002524702	4.86057001910074	0.36860897655923397
161.559494	0.9752467464166896	0.07486473861783083	4.6742325054544995	0.358817085056241
162.0436859	0.9273497387489966	0.06802014703460078	4.44466829416445	0.32601183594113703
162.5491943	1.1280884399393138	0.07184552805167092	5.40678312885019	0.34434639625772995
163.039917	1.0845894908246851	0.05592282327428912	5.19829824781698	0.268030915566658
163.5357819	1.0652693003059313	0.07114404943527841	5.10569905395538	0.340984299267742
164.0172119	1.1452808904524228	0.07130976162897423	5.48918433791042	0.34177853654684
164.5140076	1.1476429877601462	0.0705853400846033	5.50050556718637	0.33830647704723993
165.0299225	1.0441194430258116	0.051721650668402536	5.00433050210151	0.247895234388933
165.5211487	1.1185932997727137	0.0810081234392795	5.36127414051094	0.38826154014562203
166.0167694	1.1491870635432841	0.07907852480174474	5.507906124268921	0.37901322149479305
166.9058075	1.2473969130499614	0.06320658898713936	5.97861333001618	0.302941069927299
167.0017853	1.2748930408548793	0.06657287524085645	6.1103987420999495	0.319075247957221
167.5271454	1.202480276347799	0.07604287622567595	5.763333654302981	0.36446374742422305
168.0050659	1.1152962950248058	0.07872162138640908	5.3454720198476995	0.37730262922529895
168.5558929	1.2285561526378725	0.08222610133422673	5.88831198313218	0.394099151897115
169.0348358	1.2655754652511004	0.08376660724850596	6.0657407979240405	0.40148259905633504
169.5381317	1.2720513384124894	0.07306989763970627	6.09677882695965	0.35021464257396995
170.0203705	1.2311673837373525	0.06837572773323003	5.90082727870152	0.32771608859919704
170.5299759	1.3409035493339587	0.06634206355750058	6.4267786383346	0.31796899717818
171.0486603	1.2757994403107236	0.06823609844419039	6.11474299837663	0.32704686333498506
171.5430298	1.2690890999316573	0.07179068117206445	6.082581198055079	0.344083522202091
172.0387726	1.3563083083842955	0.08382635883627425	6.5006116716221705	0.40176898074878903
172.5402679	1.3355598231712804	0.0673829542578195	6.40116684457921	0.322957852730821
173.0596161	1.4809932710898122	0.08425001416260973	7.09821069746962	0.403799506361658
173.5011444	1.3531696113780811	0.0773740883553999	6.48556829964977	0.37084407633203403
174.0500031	1.3848433259066595	0.05344433344696418	6.63737634880445	0.256151831880517
174.5499878	1.427805308500654	0.08203924133384499	6.84328761821136	0.39320355589439804
175.0553894	1.4951588165429228	0.05970160797163086	7.166104339009781	0.28614214570234103
175.5585785	1.3770035918708243	0.06832651671744315	6.599801509617279	0.327480226515614
176.04323575	1.4971710040283166	0.07642344085138758	7.17574849541005	0.36628774483868604
177.2786102	1.5239546820693473	0.06612383669206505	7.304119227201779	0.31692306381646396
177.520401	1.5125290494821297	0.08121247043666567	7.24935763642408	0.38924094908093404
178.0599823	1.5806259252192023	0.0750542726222357	7.5757372231898295	0.359725497217095
178.52754975	1.586116007825133	0.06636914115454515	7.6020504845963	0.318098776626038
179.0576935	1.566808512073956	0.0899015699431238	7.50951213512662	0.430886687972599
179.5536499	1.631034256367665	0.07594909130916967	7.817337885653549	0.36401424835451
180.0135345	1.655674248690328	0.06836034659240468	7.935434206889089	0.327642368765031
180.5291443	1.6577421291575776	0.09109164808743787	7.945345292604501	0.436590579799588
181.0105286	1.7142053913846598	0.050598782490528266	8.21596646271919	0.24251347130626197
181.5067596	1.7739427769838996	0.08077389168415558	8.50228008599944	0.387138897401483
182.0016479	1.6984935907715109	0.05854958809585529	8.140661818622668	0.280620662272568
182.52771	1.7785977934932582	0.07158102380006438	8.52459098276625	0.34307866132271697
183.00383	1.739838652244098	0.07222932290785233	8.338823392588699	0.34618587575231
183.5066833	1.7749604526049148	0.07903767625303154	8.50715767465609	0.378817439642767
184.061142	1.745684847507693	0.08073950637888225	8.366843456264618	0.386974093045858
184.5101013	1.8165014941047215	0.06496934588381495	8.70625855574313	0.31138973752442695
185.0048981	1.9431550619100326	0.08188357610421781	9.31329285320945	0.392457472424788
185.5500488	2.0173903850375536	0.05840225504063908	9.6690932305914	0.27991451384567
186.0295868	1.9098532333139018	0.05938652310988102	9.15368146225937	0.28463198439375004
186.5262451	1.9808215650615193	0.06935488890334945	9.49382356919941	0.332409082435134
187.714798	2.001575066065828	0.08706927950558328	9.59329243628638	0.417311883363732
188.0070496	2.106528745111317	0.07190325291915836	10.0963219516003	0.34462306413996
188.5455017	2.0927164205187325	0.08087298112836269	10.030121252317	0.387613820391754
189.0073853	2.1751842313811776	0.07303421561716457	10.425378886965099	0.350043623218881
189.5210037	2.1036328130549267	0.07651640768365058	10.0824421208792	0.366733322935603
190.0426178	2.3256380928353453	0.06429282119198282	11.1464849376791	0.30814724149260403
190.5413971	2.2796288811287893	0.08280091438989619	10.925968690176301	0.396854157109121
191.0386658	2.2728439928553494	0.08286117470188749	10.893449591363499	0.397142977051493
191.5301666	2.2584597370535016	0.06728899175447198	10.8245076991882	0.32250750251016697
192.06320955	2.2997755580418904	0.07850911611074536	11.0225291272658	0.376284118709127
192.5142059	2.3674164970330684	0.07863959009468416	11.3467234677173	0.37690946377086
193.0213928	2.4004300652203394	0.07082227170432967	11.5049532635192	0.339442059895954
193.5253448	2.473032356252546	0.06954650800658903	11.8529267276298	0.33332748820712904
194.0185089	2.5309716984167583	0.07386704596233522	12.130622559462802	0.35403527218897896
194.5291138	2.5148038582838113	0.07053817556777209	12.053132176469898	0.33808042357053103
195.0103455	2.5624166007725684	0.0771635908599775	12.281333941236099	0.369835188848907
195.5586853	2.5927678727470544	0.07062655637555647	12.4268036929336	0.338504021440631
196.0171356	2.6341507610083656	0.06140089059650635	12.625146565843801	0.29428658926017
196.5041046	2.797795213661242	0.0798211247762259	13.4094734274692	0.382572407877135
197.0259628	2.7182537697540408	0.06705595378192226	13.0282414941068	0.32139058141271204
198.0769653	2.798967832926351	0.06860046081597683	13.4150936411286	0.32879320542556506
198.5044098	2.8887235643902636	0.08561669373301069	13.845281343985299	0.410349826161217
199.0602875	2.983042582313604	0.08806754760433523	14.2973402932509	0.42209645425667697
199.552887	3.042081182384504	0.08020519842550591	14.5803047271666	0.38441322359126
200.074173	2.974261489028764	0.0734819454408226	14.2552536399847	0.352189534808018
200.5600891	3.0487778406317254	0.08644903826381667	14.612400950786	0.414339146685408
201.0108032	3.1093329472682343	0.07706772856241483	14.9026338060625	0.36937573315837396
201.5551147	3.213575892902553	0.0740768769007326	15.402256867342698	0.355040964949822
202.02222445	3.2128360379607663	0.07480170756803159	15.3987108375498	0.358514985323115
202.5439911	3.1717532583842942	0.08587812764911007	15.2018063470541	0.41160284537215003
203.0397034	3.338856547373282	0.0787586269863556	16.0027109673777	0.37747999231703905
203.5412903	3.3398053641301457	0.08463185524193935	16.007258524334897	0.405629621654509
204.0353546	3.353088904090382	0.07668963997840736	16.070924826732497	0.367563603094057
204.5256958	3.5320714489621956	0.07000096178489452	16.9287651960777	0.335505626848029
205.045578	3.4836590176092885	0.07450609979391433	16.696730625207	0.35709817519611803
205.5026093	3.513607163814576	0.07261671061210531	16.8402682468245	0.348042575306639
206.0596008	3.706806038069746	0.0700622565667669	17.7662456585706	0.335799404871791
206.5534668	3.7445444065736795	0.07784638713461312	17.9471208159726	0.373107743772296
207.056778	3.8026468092489085	0.07153516895268286	18.2255981759099	0.342858884923615
207.5393829	3.8667668243730793	0.07233153664797856	18.5329171800951	0.346675773091991
208.532486	3.9348323389592195	0.08557439124738683	18.8591464568889	0.410147075776157
209.0309448	4.030704251706041	0.08538771481647076	19.3186482317657	0.40925235959833206
209.5153198	4.099440792149741	0.08164806661609239	19.6480936493843	0.39132870567033995
210.009079	4.154160085623765	0.09042595383899342	19.910356201063202	0.433399992693088
210.5023956	4.254603674214509	0.07678600374598128	20.3917694315922	0.368025462266002
211.0596619	4.262570054812549	0.06494232569437002	20.4299512714999	0.311260233223827
211.5565643	4.351066665849472	0.0676680836154002	20.854104171728704	0.324324441152018
212.0364227	4.45011550934286	0.0825515364811454	21.328832567989004	0.39565892079430304
212.5407104	4.521168489965683	0.06980466755782065	21.6693803861252	0.334564813807439
213.0452576	4.578356437267916	0.06880852314813127	21.9434748788087	0.329790421483645
213.5420532	4.640007415363946	0.08650549877944513	22.2389601053612	0.414609754691428
214.0270691	4.687018837956343	0.08015924180441744	22.4642798210295	0.38419295940384096
214.5260162	4.76538920223275	0.06834334171489195	22.8398989200022	0.327560866569291
215.0195923	4.813057635194734	0.07744146507532518	23.06836760206	0.371167004304409
215.5644989	5.016943102174031	0.07795681192211343	24.0455644813585	0.373636995608345
216.0485382	4.961867547953203	0.07955097678696679	23.7815944176379	0.38127762323179504
216.542511	5.09480876917627	0.06534873547367967	24.418764631062203	0.313208103142864
217.043457	5.28200825638665	0.06951655282902827	25.3159877505837	0.33318391688512705
217.5288086	5.321209033934484	0.08821683616495483	25.5038720468671	0.42281197517003
218.047821	5.271056863001208	0.07994446266651921	25.2634991274426	0.383163550557776
218.9163971	5.455744269842449	0.077251411471075	26.1486821681216	0.370256101768175
219.0320129	5.605912450115268	0.09084162437160793	26.868418985593898	0.435392248214314
219.5110626	5.700657029347925	0.0785456693603135	27.322517595604204	0.376459313743552
220.0120087	5.764883982407226	0.07815154413095456	27.6303491395895	0.374570322095994
220.5273285	5.748338916107628	0.08494089805530725	27.551050759988	0.407110824200561
221.0442047	5.920710229509923	0.08519316574942763	28.3772043452968	0.408319910885819
221.5396118	6.076037917974888	0.07742586573943762	29.121670023431797	0.37109223868931
222.0370789	6.1054397637808675	0.08107640100446607	29.262589297340302	0.38858878575373196
222.5307159	6.212821777355493	0.0873396306151814	29.777257508432402	0.41860764153879104
223.0320129	6.28634279515367	0.07893890785732205	30.1296343120352	0.378344055396746
223.507782	6.374918669983739	0.08553992705241381	30.5541671134529	0.409981893312325
224.0019531	6.53987174921198	0.07900150432966334	31.344766054322395	0.378644072255884
224.5031586	6.7553890601752675	0.08702430084767566	32.37771286916091	0.41709630642834
225.02215575	6.664718398119332	0.06937368202006512	31.943140021386597	0.332499155431895
225.5535126	6.8311549338027495	0.07268007385325673	32.7408489786788	0.348346267190287
226.0271454	6.922243633050318	0.07558773767459355	33.177425425067305	0.362282326755278
226.5377502	7.038493242042294	0.07394212306206893	33.7345948830462	0.354395107093612
227.0284576	7.251380619870936	0.07475454331960772	34.7549367658608	0.35828893313284804
227.5450134	7.340035929405364	0.09225328884476179	35.179850287622905	0.442158174880007
228.0525055	7.450182274819164	0.08171533712549282	35.7077675864828	0.391651124589299
229.3159485	7.840990387009635	0.08340579895854662	37.5808607171268	0.399753291223869
229.5419922	7.702087072301045	0.06469122240495548	36.9151149547217	0.31005672738090007
230.0389099	8.010828930147325	0.09491515238448943	38.3948750595792	0.45491614523796503
230.5532227	8.000523539252644	0.08090661484392041	38.345482643477	0.38777502247432105
231.0548248	8.129950897402777	0.07115779778232116	38.965811362114906	0.34105019333083897
231.5570526	8.307649131970269	0.0754273390024196	39.8174961969827	0.361513556502968
232.0103455	8.451293115734408	0.09143968769979419	40.505963377817	0.438258688998864
232.5079193	8.68154853474464	0.07770276329622462	41.60954805323289	0.372419373145662
233.0162964	8.658472693178526	0.08331406178344777	41.4989485058513	0.399313606715942
233.5689087	8.901903472423449	0.08206599143464827	42.6656809921226	0.393331765694798
234.0056305	9.018884462701944	0.09012280187934894	43.226355866752094	0.431947024252979
234.505127	9.200660407656857	0.06747667638467802	44.097584644228	0.32340705085780996
235.0682068	9.249143288284314	0.08433216897455455	44.3299568694311	0.40419326383266
235.5610657	9.452847558656446	0.07677235384349726	45.3062852966438	0.367960040035042
236.0184174	9.63008633946374	0.07396699932606267	46.155768028599105	0.35451433583464703
236.5693054	9.807096392719343	0.08925632217161036	47.004154498751	0.427794098206202
237.0034332	9.86541697745555	0.07549269281541982	47.283677577308	0.361826788942044
237.5024261	10.113692131558821	0.0832975520604849	48.4736285306131	0.399234477732418
238.0542755	10.228309539329523	0.06868109114860925	49.0229750575933	0.329179656262854
238.51908875	10.483363478055772	0.07461726329752581	50.2454158556978	0.35763096760369095
239.7911835	10.935691937444107	0.07324364658635273	52.41336811576281	0.351047398978631
240.0358429	10.862155268005342	0.08892989106411268	52.0609162958552	0.426229555797767
240.5385742	11.16366059539072	0.059446105713221974	53.5059926388531	0.284917556165529
241.0074158	11.264177358214116	0.07670399348354712	53.987756584089006	0.367632397602255
241.5481567	11.513222428833116	0.07721463210313653	55.1813976484532	0.370079822977418
242.0489655	11.708384395837557	0.08870163750594638	56.1167839118295	0.425135565784484
242.5285645	11.826699427907016	0.08164476851528181	56.68385267757	0.391312898296389
243.0134735	12.014385214456295	0.07959037850630594	57.5834065674177	0.381466470616298
243.5184326	12.179291313757776	0.08772447426335589	58.373780339527	0.42045214775880596
244.02211	12.44466770685753	0.0850005875044636	59.645695336798006	0.407396908070622
244.5256958	12.591433983946946	0.08300841640165088	60.349127268867	0.39784868762342895
245.0171661	12.872212259718903	0.08578203517676469	61.6948615133143	0.411142286483421
245.5155792	12.909531797116374	0.07792971465561901	61.8737292669702	0.373507121887338
246.0009003	13.17227581660734	0.07356048314910045	63.1330276353379	0.352565955965315
246.546814	13.442592097505031	0.0715890309745592	64.4286188809053	0.34311703868253696
247.0389099	13.64465783985597	0.06238518057053714	65.3970940535792	0.299004164795092
247.5274048	13.874623332748774	0.08425124260925013	66.4992891503195	0.40380539414876304
248.022522	14.090141839076175	0.08337048252342169	67.53224169438481	0.39958402408235405
248.55877685	14.247916809293612	0.10502761324505494	68.288436879908	0.503383872444712
249.0191345	14.479796813329758	0.07236115894537318	69.3998079828756	0.346817748962074
250.1452942	14.900876889388883	0.08828453747356138	71.41799075164319	0.42313645885430096
250.5243835	15.112759593278325	0.07633044803892701	72.43351736119361	0.365842042222016
251.0269318	15.34620710264288	0.07933934853302982	73.55240131604761	0.38026331616821407
251.5276947	15.555428424529799	0.08831392206989186	74.5551722631861	0.423277295453687
252.0326843	15.859680881689803	0.07631331987230554	76.0134152466639	0.36575994911739906
252.5401917	16.056936526353454	0.07891185367989095	76.9588362383862	0.37821438819609
253.0272827	16.306520135079086	0.08113223606912502	78.15505844678671	0.388856396053517
253.5798187	16.49388900737194	0.09921080375605405	79.0530934072719	0.475504651015444
254.0108948	16.761784333858696	0.0812356550559037	80.33708132902059	0.389352069985738
254.5171356	17.011492039037588	0.087439366018865	81.5338983157967	0.41908566052993906
255.0206299	17.192201190040517	0.07957908334911037	82.4000140867588	0.381412334377329
255.539917	17.48838628620509	0.07755908205161086	83.81959124424269	0.371730727378357
256.0689697	17.718154970011863	0.09903858358607436	84.9208430602895	0.474679221841164
256.5088806	17.92091621740078	0.06456418044738145	85.8926516993586	0.309447831581113
257.0543518	18.241765373627096	0.08804639001387245	87.43044053166291	0.42199504864067094
257.5411987	18.484280971020485	0.0791538459552436	88.592786668762	0.37937422611780397
258.0253601	18.70323396172933	0.06755462742687351	89.64220025573181	0.323780660199859
258.5283813	19.051915891452875	0.08350501580925813	91.31338799972251	0.400228824857166
259.0274353	19.13784894136765	0.07259336207923	91.725254080466	0.347930668784806
259.524231	19.476145307526014	0.09038249345417507	93.3466651510331	0.433191692645778
260.5639038	19.915776912367058	0.06725249887911283	95.4537630165974	0.322332596841578
261.0513611	20.141059459294446	0.09906864857014944	96.5335133542721	0.474823319451698
261.5391846	20.615309676234205	0.09304371569591405	98.806533785136	0.445946589344772
262.0405273	20.781759243033033	0.09484016138325285	99.6043051988921	0.45455672299238004
262.5263367	20.938107338550008	0.06792073356595096	100.353661557082	0.325535359943293
263.015686	21.156930010244626	0.09337063264748573	101.40245054174001	0.44751346034150696
263.506012	21.461954280463537	0.08845164448819287	102.864392726165	0.423937381331151
264.0016174	21.803572104154416	0.06802165463886133	104.501723116454	0.32601906169489203
264.5096436	22.062485155148835	0.10002924498340292	105.742660144433	0.479427334790329
265.0148315	22.367208843239293	0.07307549913007794	107.20316167728899	0.350241489798501
265.5198822	22.476366451775114	0.1002214007605969	107.72634008717401	0.4803483127717179
266.0421143	22.947249826876913	0.07576435204775148	109.98322367716399	0.363128816781498
266.50401305	23.146558875726694	0.09791592277081916	110.93848637164399	0.469298452620916
267.0284424	23.343745221099454	0.09124532652945776	111.883575220758	0.437327140851154
267.5431519	23.57122213644645	0.08298643624238267	112.97384288467201	0.397743339540696
268.01623535	24.009759614214275	0.08638856120080243	115.07569673958	0.414049287883198
268.5096741	24.18506272951276	0.08767934933245104	115.915902075149	0.420235869755709
269.0108032	24.504823975021527	0.08427747176378356	117.448476690992	0.403931107120543
269.5492859	24.711366754776424	0.08748650557340051	118.43840972941999	0.41931159436556803
270.0471802	24.948996551082935	0.07746320472201919	119.577338848888	0.371271199641238
270.9757385	25.350670724846527	0.0838825555114832	121.502511618247	0.402038324201536
271.0249329	25.531028969709315	0.08443391408064524	122.36694554111001	0.40468091506954695
271.5273132	25.753064861727886	0.09027517735832966	123.43113507843901	0.432677340369903
272.0177307	25.98109608274798	0.09316673619127554	124.524059458312	0.446536210792235
272.5076904	26.262005080840165	0.08775574156725627	125.870420238065	0.420602007933973
273.0107422	26.565354035005953	0.08079302221838965	127.324332847635	0.38723058759711004
273.5492249	26.730433585312454	0.06747115195375386	128.115537948153	0.323380572969322
274.0566711	27.092908494013614	0.09285842547529917	129.852833670377	0.44505851709503297
274.5541382	27.260518046758815	0.08329157459707082	130.65616474791702	0.399205828517342
275.0028381	27.56381162092236	0.08270470509916569	132.109811928243	0.396393038324863
275.5000916	27.742002923202328	0.08555153021907606	132.963859973383	0.410037505801142
276.051239	28.046423411586844	0.09036626645643944	134.422908308957	0.433113918727987
276.5037231	28.288044915527887	0.09242657217913336	135.580969170875	0.442988699664785
277.0084229	28.516928379814516	0.07595816875388568	136.67797824335898	0.364057755382156
277.5193176	28.823847094479223	0.06767804632779291	138.149000256905	0.324372191154035
278.0192566	29.08165160270679	0.09963652930969294	139.384624181658	0.47754509896211295
278.5253906	29.346631144675605	0.08443960794333878	140.654637122385	0.40470820502276295
279.0287781	29.59662843622035	0.09440118949962172	141.852842059451	0.452452787085915
279.524231	29.76920479703141	0.08664346696296338	142.67997841067697	0.41527101849004
280.05332945	30.010372246274923	0.08888077299454289	143.835863046697	0.42599413919347495
280.5113525	30.209131040650828	0.0935577661616816	144.78848844209602	0.448410367260836
281.4046326	30.52393392045433	0.0856488575449154	146.297298247404	0.410503983184203
281.5101318	30.51169762693895	0.10078139046103998	146.238651262827	0.48303227154435496
282.0078735	30.860581060245757	0.07862562139201767	147.91080478763402	0.376842513571536
282.505188	31.026315184992132	0.08513930652908593	148.705147179443	0.408061770554293
283.0006714	31.24822968908575	0.08568624210060949	149.768754920025	0.410683162562211
283.5566711	31.530616862437533	0.0902012994167574	151.122200404108	0.43232325287645396
284.0620728	31.611420491371344	0.0764876533139291	151.50948182833102	0.3665955069314791
284.5051575	31.724454848297103	0.08747484300711368	152.05124099575897	0.419255697181973
285.0079041	32.07094795472042	0.08041843490029926	153.71193799055598	0.385435238651028
285.5793457	32.296028055607344	0.07181085641154794	154.79071803033798	0.344180219535915
286.0180969	32.55528703008773	0.07972033964326436	156.03331302519402	0.382089357668266
286.5128784	32.61468577320416	0.0793396482559598	156.318003578511	0.380264752701755
287.0108643	32.844029406281926	0.10098659919501676	157.417218180959	0.484015810672562
287.5219421	32.99465878427405	0.06968436376408844	158.139165459916	0.33398821316226
288.034729	33.23389348635463	0.0894690733216067	159.285786686807	0.428813787166498
288.5701599	33.40567361250283	0.1036439835078894	160.109106787472	0.49675231267100806
289.0091553	33.520695646005656	0.08086694630854523	160.66039263366198	0.387584896274797
289.5011597	33.745551225208644	0.09739271364730644	161.738096569825	0.466790778433579
290.0623474	33.79222844697794	0.09555595237538224	161.961814503835	0.457987417362616
290.5670776	34.01017326654825	0.08978725195025006	163.006396055913	0.430338776502797
291.8093872	34.346915202838716	0.10039733505277455	164.620356943598	0.48119154325707203
292.0560913	34.41789561534583	0.08935286359208322	164.960556952068	0.428256808845694
292.5545654	34.51959825259095	0.09236847144951633	165.448004641228	0.442710230323601
293.0558777	34.77798069311043	0.09408086812394592	166.68639852129203	0.45091752783806105
293.5322113	34.79650282550113	0.0837080228737507	166.775172724958	0.401201811666068
294.0621948	34.969925694535966	0.06809078253294418	167.606366281471	0.326350382820282
294.5342102	35.15899480228101	0.09068593275837493	168.512550252293	0.43464603829146703
295.0466309	35.27146045171724	0.08731914063974361	169.05158367770397	0.418509435715927
295.5198059	35.40287971347604	0.10261967992584836	169.68145933472397	0.49184295704770403
296.0718689	35.45505165489916	0.11075266113524128	169.93151275491599	0.530823292306318
296.5085907	35.613348334704135	0.08518982768493348	170.690208427543	0.40830391197106103
297.0475769	35.64680673232361	0.08808048702583414	170.85057023373002	0.422158471243449
297.5288086	35.815017531892714	0.10246861362607515	171.656783010141	0.491118915658719
298.0336914	35.84683099350466	0.09934414164926404	171.809260849133	0.47614372242679803
298.5367432	36.04994633702853	0.09155779718771316	172.782766625537	0.438824772617868
299.0177917	36.134396409659985	0.08855620081953605	173.187524986467	0.424438506409918
299.5114441	36.15841954248775	0.08346154759282763	173.30266477930297	0.40002048727394396
300.0177612	36.27935260656737	0.09013346228086185	173.882281436505	0.431998118189417
300.5084534	36.37777698886792	0.08231202818600904	174.354016870403	0.394510988271005
301.0149841	36.462395819631055	0.09431043219510798	174.759584067402	0.452017798971959
302.1897583	36.33371382364944	0.07758687736480524	174.142827773988	0.371863946747619
302.5100708	36.44594377373611	0.09198881299758316	174.680731522663	0.44089057608377197
303.014679	36.692420457571345	0.09955295212147738	175.862062638765	0.477144524224174
303.5219421	36.608892735499694	0.09248970123421252	175.461724985706	0.443291269124641
304.0117798	36.661210469649724	0.10593837621471304	175.712477171729	0.5077490424831479
304.5045166	36.7150080283885	0.09925721217572477	175.97032196710498	0.47572708061549
305.0079956	36.759424444988284	0.09311015004719235	176.183204152059	0.446265000665153
305.5056152	36.78783469032435	0.07910922395188769	176.31937081216398	0.37916035858191
306.0549316	36.868698511180604	0.08680964502933392	176.706940728547	0.41606748863708404
306.5110168	37.03106151488973	0.08295216771355364	177.485125769829	0.397579094879583
307.0174255	36.875883734887566	0.10546205720305757	176.74137858371898	0.505466106584693
307.5724792	36.899842676425656	0.07125219103819926	176.85621071594102	0.34150260809309496
308.0229187	36.908856459648135	0.09665910763501027	176.899412622218	0.463274698957825
308.5366516	37.091248742618	0.09348765282942245	177.773595428707	0.448074323056725
309.0443726	36.990601193944315	0.07099052304153158	177.29120464367398	0.340248466964037
309.535614	37.09808463387083	0.10172629752605707	177.806358978255	0.48756108985025
310.0328674	37.175107704350594	0.10499526560344348	178.17552067095403	0.5032288343495319
310.5152893	36.93532347846268	0.08427171844638157	177.026265646973	0.40390353220853903
311.0245361	37.19676363183567	0.09710609092856737	178.279314752358	0.465417032523988
311.526825	37.1390267488903	0.08863564918202635	178.00258928158	0.424819292215994
312.5947571	37.09640914092542	0.09990195892985164	177.79832855557797	0.478817269069847
313.0400085	37.086610405018334	0.0921465125224328	177.751364471814	0.441646409669329
313.5290833	37.157810834954844	0.1039936086051881	178.09261899558902	0.49842802089615296
314.0332031	36.952588193280654	0.0844843235296013	177.10901320957302	0.404922521089519
314.50556945	37.078540285028716	0.09201328739763785	177.712685422315	0.441007878742517
315.0317688	37.11423691390099	0.08655479351012346	177.883774783672	0.41484601800974297
315.5206909	37.15214752175917	0.08197990270300355	178.065475462196	0.392919153451501
316.0124512	36.98198509491848	0.09429827432565038	177.249908786718	0.45195952786382704
316.5401306	37.076185822766206	0.095082913908814	177.701400786831	0.455720204695783
317.0448303	36.99616570418692	0.08788796263194282	177.317874627192	0.421235726529533
317.5440979	37.017768041129536	0.0811866272241261	177.421411856003	0.38911708587960403
318.0328064	37.01301348590483	0.09553984241342042	177.398623882947	0.45791020438227004
318.5383911	36.89763276693029	0.10569706805796163	176.84561890331997	0.506592483454099
319.0265503	37.08780640734046	0.09145347341598226	177.757096757465	0.438324762167479
319.5246887	37.049414417282584	0.09899813151382633	177.573088875832	0.474485340249957
320.0220032	37.028498238062554	0.09773521863211067	177.47284031293302	0.468432360873238
320.5171509	36.98170630745261	0.08800111482241817	177.24857259416999	0.421778050458043
321.0083923	36.90484131405309	0.09538262877493425	176.880168544631	0.457156699587701
321.5015564	36.93862842541108	0.09871592059985819	177.042105833584	0.473132739554481
322.0305481	36.88825511422396	0.08751990334044196	176.80067301730102	0.419471665577175
323.0140076	36.605704468916244	0.1009270236701067	175.44644403311102	0.483730272826794
323.5050659	36.590267178792665	0.08442208088401827	175.372455082564	0.404624200076628
324.0014343	36.579369516343846	0.11477617106043946	175.32022398490702	0.5501074590543551
324.558197	36.495777149722926	0.09414858472718166	174.919576498819	0.451242084827527
325.0505676	36.42772493311536	0.10238324848999554	174.59341095753	0.490709771516109
325.5473938	36.38422614845167	0.11138785448220281	174.38492686468902	0.533867692506088
326.0070801	36.341855874192085	0.08056658313186595	174.18185157739703	0.386145294113565
326.5276794	36.312174931194974	0.10718572067756775	174.03959462646702	0.513727404426109
327.0370178	36.26885471532015	0.09061695955796728	173.831966390916	0.434315458593011
327.59375	36.26928617104481	0.09703403897794532	173.834034302837	0.46507169677084
328.0159912	36.267774966030025	0.11763902661481745	173.82679129112898	0.563828758345906
328.5098267	36.12051710899762	0.10559385446630554	173.121003279476	0.506097793954343
329.0183105	36.17462064950076	0.09105515696434031	173.380314606183	0.43641568252936397
329.520813	36.03303479463189	0.09665098784640165	172.70171177303098	0.46323578185300895
330.0076904	35.98778531989222	0.07905845247729289	172.484836847316	0.37891701741950895
330.5083313	35.967922314103056	0.09535201941777498	172.38963600952098	0.45700999286683197
331.0751648	35.89972921386454	0.10122309980267252	172.06279523106798	0.485149327735732
331.5136414	35.879362090326644	0.11198767219366008	171.965178221595	0.536742541824522
332.0123901	35.72352244121527	0.09586774485114548	171.21825878177998	0.459481798687674
332.5748901	35.791499150825864	0.08805274954067521	171.544062427722	0.42202552903654
333.4617615	35.507920260587376	0.09363395625842451	170.18490519753001	0.448775536617307
333.5198059	35.471529467421185	0.07160307119746122	170.010488795792	0.34318433166917195
334.0057068	35.361531115655495	0.0931058990800884	169.483280811496	0.446244626325336
334.5001831	35.352014459178264	0.10116142883365645	169.437668698241	0.48485374669526504
335.0648804	35.324025911014935	0.08036864044044367	169.30352317857	0.385196580194895
335.5591125	35.21115010950162	0.11030887818353688	168.762523946887	0.528696297567966
336.0408325	35.22903382041675	0.10531635949307298	168.84823827834703	0.5047677961576319
336.51684575	35.10570385966538	0.09158584066496366	168.257133602983	0.43895918140560497
337.0514832	35.09071283760546	0.0975601536971996	168.185283557997	0.46759329710570097
337.552124	35.08847363280062	0.10039184428125562	168.174551336717	0.48116522669379397
338.0628357	34.98349783757065	0.08198683959708662	167.67141582136898	0.392952401094653
338.5635986	34.89355637971097	0.10096728840303143	167.240337955731	0.48392325652466506
339.0422363	34.935100757063076	0.08867158397616733	167.43945482513	0.424991523072921
339.5399475	34.83784389336877	0.09868270498148658	166.97331515808798	0.472973541358074
340.0389099	34.707148536174586	0.11495976422485955	166.34690908275	0.55098739753153
340.5216064	34.61668368609893	0.08688266949145128	165.913322665386	0.41641748551303004
341.0307312	34.457764576550936	0.10156704513659635	165.151643766875	0.486797813583886
341.5566101	34.61504880417886	0.09229135709311743	165.90548688614197	0.44234063110920596
342.0599365	34.523339520916075	0.10074474371753199	165.465936060206	0.482856628405474
342.5440674	34.2250220463457	0.09366289416348347	164.036138686664	0.448914232282751
343.031311	34.43605068360945	0.0737513945450991	165.047571864477	0.35348096978732196
343.9122009	34.08697182418198	0.11724043242983447	163.374481687352	0.5619183475675279
344.0209656	33.99541344704006	0.10100944687678012	162.93565413508801	0.484125316679288
344.5205688	34.01244710661276	0.10095270634513485	163.017294279548	0.483853366592433
345.007782	33.77679897969848	0.09464188657470572	161.887863047176	0.45360641727895
345.5508423	33.69645431047211	0.10229620107835474	161.502781357934	0.490292564442615
346.0547791	33.745409575979906	0.09549231871821404	161.737417663249	0.45768242940970105
346.5296631	33.7448113698024	0.12258502216865626	161.734550537806	0.587534280332553
347.0368958	33.68297599001617	0.09813734518792303	161.438181497616	0.470359701851704
347.5358887	33.56676895909821	0.0959431176015589	160.88121611088198	0.459843050608075
348.0365601	33.60646580594221	0.09801690124147032	161.071478003643	0.469782429472521
348.5165405	33.30393110592299	0.1239593467135894	159.621468009707	0.5941212415139909
349.0032959	33.372577283330266	0.10104639527813575	159.950480328888	0.48430240562552196
349.5006714	33.16901204798705	0.12311391615770446	158.974818278727	0.5900692013508819
349.7526855	33.249530521667786	0.1063908521077314	159.36073299041502	0.509917701373682
