#Executed at: 2018-11-12 20:26:18.652634
#Loaded File	 = ../rawdata/DD226_1_FCW_100OE.DAT
#Rescale Factor	 = 0.20864318265697
#[[Data]]
#T/K	M/kAm-1	sM/kAm-1	M_raw/memu	sM_raw/memu
10.0048342	50.61113467245875	0.05950583930268552	242.572673729141	0.285203851594418
10.021328	50.67224271661061	0.06257872787484128	242.865556742972	0.29993181218735
10.5931921	50.635448628350225	0.061350341814526914	242.689207399601	0.294044315434897
11.0054064	50.63471425565367	0.08236152120606706	242.685687645506	0.394748201964871
11.5109901	50.646502191968516	0.0702999188100016	242.742185711557	0.336938489505222
12.0692778	50.60709410102919	0.07498874272941851	242.553307788792	0.359411420850052
12.5365162	50.58427386268638	0.06923792071078445	242.443933314859	0.331848468898303
13.0661049	50.65107259684054	0.06954622756497644	242.764091075604	0.333326144086468
13.5662394	50.55394869692462	0.07588578518211991	242.298588686889	0.363710830211422
14.0234709	50.67783174309213	0.07013748057963243	242.89234422967698	0.336159943912212
14.52506355	50.61714921129653	0.059092710146062474	242.601500641965	0.28322377656219294
15.0203991	50.608904402599585	0.07656783588694843	242.561984331909	0.36697981171440197
15.514534	50.58212472930832	0.059835834927828825	242.433632794369	0.286785478278506
16.0273247	50.63475526444953	0.07192069710855956	242.68588419540202	0.344706671901206
16.51116655	50.617365612597816	0.07451927837646763	242.60253782563203	0.357161338451133
17.0455666	50.645732002574235	0.0675711498636773	242.738494292626	0.323859850119191
17.5509796	50.618763397362876	0.07425148421369121	242.60923722863797	0.355877835394066
18.0440369	50.625444311769975	0.0657775057210983	242.641257994052	0.315263143916104
18.5370235	50.601888733717026	0.07926270068657847	242.528359131252	0.379895952876132
19.0183954	50.55104249018799	0.06261852166218582	242.284659610944	0.30012253870349004
19.5065174	50.600886590020856	0.07174361208709248	242.52355598511798	0.343857926118037
20.0435562	50.55630401751556	0.06675506379164411	242.309877436231	0.319948454301505
20.90330505	50.637382365946095	0.06197863932767787	242.698475555748	0.297055664788132
21.0740185	50.63958058882999	0.06772810749192	242.70901135594	0.32461212788951604
21.5160599	50.62055562376417	0.06761978480769984	242.617827139789	0.32409295116473297
22.015007	50.612468454418426	0.068082427039796	242.579066374914	0.326310336013855
22.513628	50.627590316675786	0.07646087667047713	242.651543520176	0.36646716991557
23.0122776	50.61945682115586	0.06686243469457659	242.612560719893	0.320463069260715
23.51886655	50.6268573236425	0.08296786092266037	242.64803037862998	0.397654310416975
24.04459	50.66134594062533	0.0839388092373815	242.813329894021	0.402307941090916
24.5420074	50.67243053854439	0.06773721735942437	242.866456949398	0.32465579031542596
25.026741	50.57330586500077	0.06331655736523231	242.39136510943797	0.303468134251628
25.5120411	50.51786019394889	0.06667331703675639	242.12562112324198	0.319556652595613
26.0000267	50.60705564401916	0.08546978782273043	242.55312346927798	0.409645724985183
26.5064487	50.54773285764053	0.06866911020313662	242.26879696685802	0.329122233128678
27.0195313	50.49894341019384	0.07421069242967643	242.034955406231	0.355682325607955
27.5210381	50.56155244218333	0.07128033774666556	242.33503246215102	0.341637511654802
28.0377445	50.599667466593786	0.07336190725252502	242.517712882978	0.351614207175603
28.5632782	50.56759782665647	0.07661912689587559	242.364007214147	0.367225642938188
29.0253925	50.67192106672135	0.07112106142818884	242.864015116329	0.340874120699735
29.5245285	50.62158882459688	0.06367043808562715	242.622779138793	0.305164239132163
30.0115013	50.615125968581125	0.059727606996859126	242.59180349926598	0.28626675569389304
31.3007832	50.48491160195504	0.06930364934343548	241.967702749997	0.332163497799866
31.5528202	50.532907780568955	0.07079103573701043	242.197742274906	0.339292349912999
32.0693665	50.4769965031272	0.06840574957577596	241.92976669703302	0.327859979437918
32.5584583	50.45236462675821	0.06638617803763583	241.81170927452197	0.318180432220406
33.0103607	50.46449580703955	0.07021476786166808	241.86985246485702	0.33653037193699303
33.5331573	50.48106938728377	0.07901770631178073	241.949287508136	0.378721726277027
34.0652809	50.40790354281085	0.0673863961002714	241.598613004703	0.322974349040013
34.5611076	50.49145190649608	0.06307531013075127	241.999049590367	0.30231186721520303
35.0065155	50.46444076224928	0.06112367220587821	241.86958864224098	0.292957917088389
35.5728378	50.38565839174178	0.06907267705515266	241.491994850274	0.33105647726202
36.0309143	50.37255170039013	0.06844169702544313	241.429176160563	0.328032270951158
36.5557442	50.35641546224493	0.07185076413260429	241.351837241842	0.34437149212171503
37.0072899	50.36120036065112	0.07371233566735369	241.374770645873	0.353293765598582
37.548912	50.37304710269335	0.07183588806627456	241.43155056022903	0.344300193044792
38.0632439	50.35441986726769	0.06118683870719299	241.342272611204	0.29326066602324696
38.5503426	50.37222334820583	0.07184922812870188	241.42760241067998	0.344364130252121
39.0090866	50.346390949795776	0.06599382465159145	241.303791040085	0.31629993279048
39.5519638	50.38502615371529	0.06862155697612911	241.488964614546	0.32889431661397595
40.0463028	50.32819716712966	0.05422456766820558	241.216590574513	0.259891394378105
40.5132828	50.34821359983615	0.06566478072143077	241.31252676783402	0.31472286745831596
41.6892052	50.452516613879645	0.05963100193167976	241.812437729291	0.28580374001349
42.000618	50.42462897961866	0.07192823461270903	241.678775877004	0.344742798191332
42.5186234	50.31572585552643	0.06781622508294519	241.15681717840002	0.325034464195467
43.020916	50.44191866617908	0.05778469767822216	241.761643125961	0.276954640656656
43.5466347	50.392882660328674	0.055161141538873464	241.52661984254502	0.264380272752855
44.0090599	50.37417783378846	0.07579620492215118	241.436970009265	0.363281483520924
44.5095139	50.44097597719616	0.07312845569572704	241.757124938638	0.35049530382191996
45.0206833	50.42347082799552	0.07319541290124135	241.673225004896	0.35081622111555805
45.510067	50.39870677528069	0.06108129475442355	241.554534078121	0.292754807401722
46.0580482	50.327878526495184	0.06910940170563469	241.21506337084202	0.33123249379902997
46.5626755	50.39934135898713	0.0664508823388531	241.557575556392	0.318490551632856
47.0109978	50.33294199158225	0.07921517080784558	241.239331909227	0.379668148266714
47.5037918	50.37077959457637	0.06635003339478253	241.420682684806	0.31800719558553003
48.0104446	50.408442881766945	0.06593514869891823	241.601197987108	0.31601870647900404
48.5194778	50.34060930939657	0.0673455975595487	241.27608037959	0.322778806869868
49.04683495	50.341977750396445	0.06950717874440368	241.282639141695	0.333138988100466
49.5176582	50.375823049147094	0.06744150207597029	241.444855315354	0.323238464909974
50.0300827	50.32686065142331	0.06502235996636581	241.210184826243	0.31164382721897504
50.5300407	50.40067590680916	0.07497676559239629	241.563971872845	0.35935401596929
51.0337486	50.359072658882965	0.06343877764860996	241.36457284433902	0.30405392038574097
52.0991669	50.27358769477809	0.07689109086710173	240.954854381381	0.36852913135205706
52.5520782	50.27385091598448	0.05973226064698435	240.956115966845	0.286289060041756
53.054184	50.22930962138008	0.0732284359091967	240.74263525764	0.35097449615495696
53.5425453	50.19228678892212	0.07332262684447662	240.565189572684	0.35142594122054904
54.0401993	50.2486086854689	0.06506692725141736	240.835133195234	0.311857432497058
54.5254745	50.166617313939646	0.0652048250253261	240.44215907317002	0.312518358831447
55.0381241	50.188645577385	0.07755986393374109	240.547737713051	0.37173447483907096
55.5472145	50.15212264331016	0.08540546528526664	240.372687976895	0.409337435317413
56.0282745	50.293832408097025	0.07211280566050018	241.051884694383	0.34562742353801595
56.5202065	50.184288505482584	0.07067418064353756	240.52685482655102	0.338732278445603
57.0101738	50.20484658229347	0.06746014633917691	240.625387050557	0.323327824470968
57.5220184	50.20956947476975	0.06712286422022719	240.64802326812298	0.321711274557117
58.0393372	50.18431639875724	0.07536901999275393	240.52698851543698	0.361234040973522
58.5414543	50.269175627185604	0.06503138522012676	240.933707907596	0.31168708410207097
59.0428238	50.21596061659588	0.06257401257827629	240.678655190742	0.29990921237601204
59.5665512	50.35731507042263	0.07531858849487581	241.356148948394	0.360992329275896
60.0668449	50.23022243608871	0.08077843426943467	240.7470102614	0.387160669429791
60.51570895	50.26540514738132	0.08098706159633266	240.915636481747	0.388160593435173
61.0484352	50.192520444020424	0.06408762751271121	240.566309451586	0.307163774519667
61.5548668	50.22973978470335	0.06279086015471566	240.744696975247	0.30094853498256896
62.5756912	50.09946226176918	0.06911751578877029	240.120293525898	0.33127138355824604
63.0153275	50.145874139648285	0.07569452991001392	240.34273970069302	0.362794168235361
63.5160103	50.130492955417026	0.07513151468669099	240.26901965848802	0.360095708519816
64.0049286	50.18722020767462	0.08355373505446473	240.540906098942	0.400462329947465
64.5019379	50.15551228252129	0.07719542065439707	240.388934082653	0.36998774496895004
65.0456696	50.172111254781264	0.06662556826475521	240.468490826605	0.31932779885885
65.5162811	50.1576322324925	0.058914908255703	240.399094730819	0.28237159491841596
66.0099106	50.134609259348466	0.07023145079937057	240.288748575	0.336610331116536
66.5605545	50.12216423849587	0.08224487509845242	240.229101187081	0.394189132139875
67.0602036	50.05151412923092	0.06429404477246768	239.89048427966398	0.30815310595684997
67.5011597	50.093882131424245	0.06063444252869735	240.093548677234	0.29061310202685303
68.00354	50.096190683025675	0.08604258581547204	240.104613268811	0.412391072259162
68.5005341	50.17318958978754	0.06879316468279495	240.473659147911	0.329716810330188
69.042572	50.12961874920735	0.06821901762639741	240.26482970030898	0.326964997167227
69.51015475	50.1472889129888	0.0678874927660468	240.349520527761	0.325376041055032
70.0463867	50.1068246704844	0.06554429166389673	240.155580606077	0.31414537886750904
70.5044479	50.14273534710652	0.06482046541878822	240.327695870831	0.310676172560881
71.007515	50.11579887697045	0.06794797131467123	240.198592826135	0.32566590697758097
71.5192108	50.12699775110099	0.0703256164860863	240.252267592729	0.337061655169
72.0255432	50.07862668516848	0.06843082606283017	240.02043128101	0.327980167822388
72.9152298	49.98847305124645	0.07524892801106015	239.588336482733	0.360658455516262
73.0433273	50.07143116293584	0.07204880133245216	239.985944066326	0.345320659007141
73.5428162	50.03411573242402	0.0813666537049033	239.807095996446	0.38997992969977896
74.0454483	49.95470414009617	0.06461045971006962	239.42648642504	0.309669642148316
74.542778	49.98941670917685	0.07764290370394561	239.59285931409698	0.372132473801448
75.0398331	50.041770366548235	0.07014399374782372	239.84378367551002	0.33619116069154
75.5452881	50.099041672310015	0.06398096958488489	240.11827769459302	0.306652576758647
76.0679779	50.02376994983997	0.07901055457878225	239.75750998816	0.378687448938523
76.5468826	50.07028320705324	0.06988121657998139	239.98044206109398	0.334931703447378
77.0481567	50.08639832657084	0.07440148692897261	240.057679760943	0.35659677915906796
77.5390778	50.01741780048469	0.06820951193781889	239.72706495145	0.326919437621703
78.0534286	50.11113550277953	0.07072207286765303	240.176241872073	0.33896181972994105
78.5195923	49.998602632055515	0.0657068350198389	239.63688626365598	0.31492442831390005
79.0759125	49.99547806332417	0.05897316454924242	239.62191060669198	0.282650809857517
79.5618362	49.93836979002211	0.07547980695704098	239.348197981267	0.36176502867643295
80.0422058	50.06693391610557	0.08125716833565615	239.964389339385	0.389455180374865
80.5281372	49.99076018890546	0.07416682623024805	239.599298440032	0.355472080543296
81.0781631	50.0736380881099	0.05893884795796632	239.99652157547803	0.28248633483926294
81.52206805	50.04120068988441	0.07671675465494686	239.841053288365	0.367693560259176
82.0686874	50.03419758187832	0.06008765179258111	239.807488290377	0.28799240419645605
82.5572205	50.09000510221978	0.05338844293118031	240.07496657378303	0.255883955810606
83.5458031	49.85861064532972	0.06095309929528289	238.96592263597802	0.29214038301695106
84.03022005	49.968938898813775	0.07910690513727019	239.494711796875	0.379149244801014
84.5992699	49.92069474597001	0.056422348206284785	239.263483763304	0.270425074463366
85.0531235	49.96155226875947	0.07228067466772713	239.459308626926	0.346431998147592
85.544838	49.92652681484789	0.06400232486712758	239.29143612102598	0.30675492988598496
86.0242462	49.9794447739739	0.05733713107768389	239.545065108334	0.27480951137498605
86.5796509	49.97043944843603	0.0664629532518868	239.501903738654	0.318548405970007
87.03298185	49.931242635555456	0.07232349404298893	239.314038444512	0.34663722591835605
87.5021286	49.9219974250886	0.06436901677026388	239.26972733715098	0.308512437121384
88.04224395	49.89269570582016	0.06852752964361608	239.12928795688802	0.328443655675451
88.5042267	49.81685959288854	0.08353003667678399	238.765815199399	0.40034874666437403
89.0720215	49.89569757128693	0.061495692092126374	239.143675512851	0.29474096066312105
89.5804367	49.89432191289958	0.0694603109374472	239.137082158734	0.33291435671611097
90.09434125	49.878674697917674	0.08145866547991734	239.06208706527997	0.39042093032986097
90.5377426	49.89516927416476	0.07349638842306151	239.141143452539	0.35225875816847
91.0294113	49.797539000846136	0.06172679660614444	238.67321408108603	0.29584861494194803
91.603363	49.837032493639896	0.06784705531234497	238.86250132398	0.32518222952864095
92.0112076	49.85830411333385	0.07029882860188064	238.96445346745801	0.33693326427760095
92.5808182	49.90338136909286	0.07249756201451966	239.180502969699	0.34747151136834803
93.03097155	49.86570464490577	0.06669282220928026	238.999923265597	0.319650138384487
94.0086899	49.72029076225515	0.06475506786649426	238.30297318652498	0.31036273048498303
94.5758438	49.7090002546581	0.0696604696711927	238.24885923248502	0.333873691841259
95.0594482	49.674864309165386	0.08029062994521598	238.085250026289	0.384822685902092
95.5502167	49.76051861727221	0.07481449218717806	238.495780133317	0.358576260362077
96.067627	49.76378205349707	0.05998905773742126	238.51142136435698	0.28751985554231696
96.50969315	49.74026541717984	0.08240191932316551	238.398709144299	0.39494182495596997
97.0014496	49.66041819197252	0.055165171288867464	238.016011640405	0.264399586827452
97.5687103	49.70518688701475	0.077692529781535	238.230582250727	0.372370325222987
98.0056152	49.71380922900557	0.07189508515094699	238.271908029413	0.344583917075065
98.5316925	49.64899258168732	0.06012576662163749	237.96125015651802	0.288175083680976
99.0298843	49.64619366471703	0.06821754151771454	237.947835306655	0.326957922367734
99.5235672	49.728053717316456	0.07705346199119516	238.34018003394002	0.369307355313299
100.0270691	49.71110561445858	0.06614666620613378	238.258949951835	0.317032482747761
100.5298157	49.66990930266857	0.06553342014938103	238.06150131600901	0.31409327309354
101.0320053	49.712660412147486	0.061855268650356926	238.26640189763597	0.296464364963475
101.5228882	49.65331120943651	0.06758122717294311	237.98194878512498	0.323908149369315
102.0025482	49.73393804508568	0.06294726422852007	238.368382861822	0.301698159637507
102.5018616	49.65744481897754	0.07440631443096468	238.00176064520298	0.35661991675661897
103.0039749	49.636192903405345	0.07210366259339486	237.899902941052	0.345583601990679
104.3708878	49.54623552047376	0.06655145765938222	237.46874874858798	0.31897259623766094
104.6010742	49.53995336111442	0.05710372522862729	237.43863916494698	0.273690827092642
105.022583	49.594518588098836	0.05908781051987337	237.700163295712	0.28320029328262103
105.520546	49.52601828995385	0.06629841052681396	237.371850157115	0.317759773803945
106.0472412	49.5794400500369	0.07747115510818092	237.62789379775901	0.37130930482186497
106.57814025	49.619575969813866	0.06082281310261817	237.820260110743	0.29151593801469605
107.0514755	49.5703689506773	0.06901853548510076	237.58441718259198	0.330796983664566
107.5450134	49.65722174986327	0.06582396725790303	238.000691503564	0.315485828099757
108.0514297	49.53944985574239	0.05786947414951804	237.43622592831198	0.27736096340449895
108.57668685	49.473515085021674	0.061470188640335245	237.12020903343398	0.294618725891458
109.0370102	49.62728787135554	0.07191165080969307	237.85722226519	0.34466331415161994
109.5504379	49.632258651782934	0.06935558148500931	237.881046577895	0.332412401890153
110.0393753	49.61904791290717	0.08170267824596346	237.81772920175297	0.39159045220418603
110.5103836	49.436650727740755	0.07600036221558427	236.943522899665	0.364259983229533
111.0099411	49.49333535704704	0.07569686186833424	237.215205053783	0.36280534501233797
111.53128815	49.575480253433035	0.07815810232735206	237.608915000784	0.374601754689736
112.0643311	49.568963099979186	0.06689892073776325	237.57767912060402	0.32063794218357805
112.52111815	49.49671183496672	0.07387236964150835	237.23138807916	0.354060787900086
113.044838	49.56191660526859	0.07254268128520891	237.543906175709	0.347687762242758
113.5611496	49.521558161979065	0.06932788388520889	237.350473336085	0.332279650848649
114.8196716	49.481452707656	0.07126210333194725	237.15825304011202	0.341550116445018
115.0033798	49.54301792735319	0.06564460146706534	237.45332723766398	0.314626150881678
115.5672913	49.55856814518314	0.0634413318255217	237.52785743621598	0.30406616222791
116.0091019	49.51039658342333	0.060802909820947416	237.296977322395	0.29142054413976903
116.5178833	49.53226079219801	0.06893380424561239	237.401769669292	0.330390877706972
117.0118942	49.51275496219586	0.07069472611746293	237.30828072920897	0.338830750265596
117.5213089	49.534497263479835	0.06458486336907464	237.412488789147	0.309546962170619
118.040535	49.5125700725989	0.06117937173996524	237.307394577097	0.29322487780753503
118.5312271	49.475043472651514	0.07391791433292383	237.127534399211	0.35427907776144396
119.027771	49.45470153677421	0.07694673281290121	237.030038110963	0.36879581605793105
119.5187302	49.4387912500969	0.06158409171961199	236.953782148632	0.295164648733634
120.0098648	49.442271170419126	0.08223247075170405	236.97046096017	0.394129679697718
120.5126648	49.475340683635046	0.06499731016037247	237.128958893315	0.311523766713406
121.0572128	49.50619502323993	0.06617233373300861	237.276839783608	0.31715550391024505
121.502182	49.440684260428974	0.06801107450561622	236.96285510423002	0.325968352473961
122.0497665	49.48401340812356	0.0760744253495592	237.170526148847	0.364614958326403
122.5449677	49.46969508660325	0.06935085370463416	237.101900271222	0.332389742245515
123.0252991	49.403954567051656	0.06957590582011879	236.78681439727	0.333468388154855
123.5449982	49.42002152174163	0.0746059434607133	236.86382124928102	0.357576713078485
124.0337296	49.406166145963915	0.06919143966311371	236.797414211192	0.331625691201573
125.2818756	49.2971153553481	0.0745714729794691	236.27474776589	0.357411500485362
125.5198746	49.26930998131519	0.07584835055940915	236.14148017632	0.363531410868628
126.0053406	49.27895688985018	0.0745965292153014	236.187716570973	0.35753159180832406
126.5587845	49.206573740869366	0.07259045638422082	235.840793426593	0.347916742161505
127.0550003	49.24934074313245	0.06246040510767666	236.045770180295	0.299364706348291
127.5618668	49.25038011907019	0.07892659807904909	236.050751775785	0.378285056209156
128.0001984	49.28253623420761	0.07976478879416804	236.204871909153	0.382302396744538
128.5570831	49.317823868820575	0.06884136059824332	236.37400101351	0.329947807168113
129.0523682	49.24994720812235	0.07533217808286122	236.048676889166	0.36105746242720405
129.5585938	49.30707614479802	0.07042336312668472	236.322488551489	0.337530142273892
130.0464172	49.26187426506225	0.07241819838492536	236.10584174252	0.347091131676169
130.5602112	49.29078895285992	0.07246759185238391	236.24442613061	0.347327868227201
131.0404205	49.194982076631916	0.07701052423661618	235.785236067422	0.369101560165659
131.54039	49.24803059313367	0.07543635413347223	236.039490799478	0.361556764869222
132.0348206	49.213318026626396	0.07264971284226861	235.873117922755	0.34820075076074697
132.5426636	49.24489124979311	0.08480919482372268	236.02444432970802	0.406479587512607
133.0324097	49.14300264123167	0.06852463406761201	235.53610530389398	0.328429777551243
133.532547	49.17951135433262	0.08232531045511728	235.711086880747	0.39457464848237206
134.080719	49.18036575239813	0.06016144278559443	235.715181901033	0.28834607495662
134.5241852	49.222619440721544	0.07510367449641651	235.917698406894	0.359962274060468
135.6837158	49.162758395064586	0.062208117302693405	235.63079209682599	0.29815552327424805
136.057312	49.207130860956234	0.08037274818290699	235.843463631676	0.385216268077389
136.5634766	49.17930209624283	0.07787381778187605	235.71008393357602	0.37323921534454496
137.0457001	49.137186648662365	0.07072797207724527	235.50822999785598	0.33899009388449103
137.5405731	49.15691200835166	0.06981410632719148	235.602771115558	0.334610052617788
138.0283661	49.13740924798355	0.07657727780147544	235.509296887837	0.367025065599081
138.5310211	49.22858751799803	0.06734596719845035	235.946302635417	0.322780578501689
139.0287476	49.20418350044698	0.07702473189161856	235.82933731097998	0.36916965563286497
139.5324249	49.20674517106571	0.06477825713931963	235.841615069525	0.310473873693834
140.031662	49.14144882355524	0.07716899297181283	235.528658055167	0.369861080477699
140.548111	49.17139168472344	0.07188298670007293	235.67217034627998	0.344525930752579
141.0421906	49.19871384558879	0.07395656744798094	235.803121957147	0.354464337181689
141.5346375	49.17247820288664	0.07204847874261555	235.677377888407	0.345319112875451
142.00136565	49.17736830659194	0.07796617965990878	235.700815527936	0.373681893973468
142.5283508	49.13041208059906	0.06746609902112988	235.475760362486	0.323356354911681
143.0216064	49.2351645587586	0.07553538580156706	235.977825547773	0.36203141094600105
143.5140839	49.133503876790755	0.06846005740210183	235.49057894487302	0.32812026988035803
144.0157928	49.152783624466295	0.06819904785644497	235.582984301377	0.32686928462249804
144.5258942	49.15594875941039	0.0707603577565321	235.598154386993	0.339145314289368
145.0161743	49.1628391292491	0.06454891839831964	235.631179045412	0.309374682538487
146.1518097	49.121264222961535	0.07180054100861873	235.431915854743	0.34413077913341605
146.5258026	49.0994726138379	0.06206220756045985	235.327471468657	0.297456196603827
147.0299072	49.1282656153542	0.07076587907795281	235.46547263001602	0.33917177727440495
147.5217896	49.065780754408415	0.06863904975351448	235.165990709974	0.328978157251195
148.0102386	49.183498728518785	0.07433485801010237	235.73019785353503	0.356277435301187
148.5187988	49.2033445018549	0.06416347497972463	235.82531609839398	0.307527301695813
149.0102234	49.01628791702251	0.05920353164320132	234.928777891632	0.283754929776631
149.5512238	49.10888347317334	0.08966747662112166	235.37257650978802	0.429764708720648
150.0569153	49.120467915553135	0.08950852632762964	235.428099255522	0.429002880361495
150.5703888	49.155512512899435	0.0704116139124836	235.596063513448	0.33747382979796303
151.0065918	49.02957925368292	0.07888302091659131	234.99248156261302	0.37807619646160595
151.5085754	49.16785987258459	0.06927045899337113	235.655242823924	0.332004420711213
152.0076447	49.05140940037851	0.07685606797883489	235.097110654336	0.368361271142963
152.5074615	49.16343117206149	0.0656932182994657	235.63401663063698	0.314859165120539
153.0114746	49.049926556339	0.07827040544796901	235.090003573143	0.375140009135373
153.5090027	49.134173445882034	0.07486317171572854	235.493788103604	0.35880957509554
154.0346527	49.04979857842559	0.07409914802339293	235.089390191427	0.35514770758275505
154.5237732	49.12834916072204	0.06721951754380523	235.46587305224298	0.322174521533832
155.0254059	49.080025917986276	0.06614266232067163	235.234265950969	0.317013292638546
155.5027924	49.152496288316726	0.078765528144914	235.581607136085	0.37751306868440704
156.554306	48.86978986084899	0.06965572668514255	234.226631507993	0.333850959317772
157.0366821	48.87853522718809	0.06922525697769241	234.268546926593	0.3317877732506869
157.5220032	48.859656269348555	0.07572804429771979	234.178062504341	0.362954798394847
158.0299225	48.87884630667521	0.06821809673087846	234.27003789065498	0.32696058343318
158.5370331	48.98157745874108	0.0724554343530015	234.762415119365	0.347269598892792
159.0422058	48.901983989222394	0.06968864554335118	234.380933833923	0.33400873518080004
159.5497742	48.82566516525913	0.0799943729441479	234.01514750440398	0.383402764113633
160.0493164	48.9027161963231	0.07410946559602119	234.384443208595	0.35519715838434307
160.5482941	48.82992296892564	0.08420309357395382	234.035554610988	0.40357462200139094
161.0217133	48.93231563659645	0.09060046480467374	234.526309527429	0.43423640135719105
161.5050507	48.97800981666838	0.07449124829104926	234.745315868734	0.357026993848729
162.01945495	48.83691060215272	0.05700205875357799	234.069045440346	0.273203552724246
162.5431671	48.88526058549364	0.06419345371983237	234.30078070590898	0.30767098595007897
163.0361023	48.914542661789895	0.07671617307420947	234.441125939927	0.367690772817334
163.5389404	48.89691076414398	0.0698080690697688	234.35661851715201	0.334581116817702
164.0317383	48.83258219188331	0.07346841070132469	234.048299925375	0.35212466453847197
164.5193024	48.970061387421545	0.07426949867194253	234.70722006734897	0.35596417638073
165.0147705	48.99981295005801	0.07216241149292602	234.849815489148	0.34586517792708404
165.5624847	49.03111284588398	0.07429010867303576	234.999831873232	0.356062957471158
166.0368347	48.92564074093594	0.06660201269565849	234.494317609095	0.319214900038976
166.9901581	48.84269970863686	0.07621809314739943	234.09679188482798	0.36530353964504797
167.0475922	48.88167576840133	0.06697516421362194	234.283599137613	0.321003367379301
167.5458221	48.85775619658078	0.07749787679392339	234.16895569939499	0.371437378432525
168.0388641	48.8272862243159	0.0775078723401205	234.02291703243802	0.37148528580275303
168.5191956	48.87843372800573	0.07790524346533377	234.268060454037	0.373389834612606
169.0241547	48.88453038412659	0.08930310811567362	234.297280944461	0.428018337232215
169.5245361	48.81647110399358	0.0863714720289913	233.971081548601	0.41396738167570296
170.0191498	48.8672905987182	0.08112518273770372	234.214652865322	0.38882259034114497
170.5279083	48.89171558460093	0.07320757938904195	234.331718688282	0.350874533530302
171.0179443	48.87994592830191	0.07296095607212932	234.27530823600102	0.349692499620677
171.5176086	48.86639735959503	0.0782379232382888	234.210371684831	0.374984326072708
172.0405884	48.85723314928078	0.08043207988437097	234.166448800807	0.385500637308669
172.5233002	48.882678832540456	0.06561957807093852	234.288406695312	0.31450621695521
173.0193787	48.82492638914279	0.07093706688675926	234.011606645283	0.339992258474061
173.5114288	48.86318883089324	0.07806427500092687	234.194993618503	0.374152052354724
174.0579834	48.89463285132991	0.07187695950714965	234.345700773351	0.344497043190347
174.563797	48.876999265417425	0.08111019306871299	234.261185258931	0.388750746781246
175.0560455	48.97457789371155	0.07445947685529879	234.72886710240897	0.356874717434298
175.5396042	48.80947787651094	0.0801443836732072	233.93756390669398	0.384121746287644
176.0059814	48.90376629282411	0.06286427745815705	234.38947618636902	0.301300414696569
176.5077515	48.89233641909427	0.07996854828492106	234.334694268339	0.38327898983595
177.4693298	48.678017162878085	0.06770258903948585	233.307489576161	0.324489821221696
177.5252075	48.792687432197155	0.07370433316464137	233.85708946175902	0.35325541063001603
178.0166931	48.6923898507603	0.08818644823058117	233.376376024782	0.422666329700158
178.5168762	48.71214436626859	0.06818060408097752	233.47105688258299	0.32678088597350996
179.010025	48.70620610033023	0.08843521079332545	233.442595535978	0.423858616740532
179.5009003	48.65723553052034	0.08771177767543178	233.207885879107	0.420391294642196
180.0022888	48.698029190518376	0.07186607174129815	233.40340465656502	0.344444859525811
180.5572815	48.722667259806336	0.06442525073210792	233.521491760942	0.30878195928418806
181.0505981	48.64798260212266	0.07568059073089088	233.16353778069399	0.36272735953859203
181.5431671	48.627573008263234	0.07264916775685719	233.06571721642	0.348198138236319
182.0498505	48.678942410507105	0.07684825544960715	233.31192416931302	0.36832382669292996
182.5660248	48.75180981820318	0.06639149848842436	233.661168303572	0.31820593245828
183.0596008	48.688172678592046	0.08139174376218315	233.356163659755	0.390100183124599
183.5331726	48.74421075323878	0.0745770675666265	233.62474696036	0.357438314623673
184.008728	48.69970444186603	0.06289743870953163	233.411433921295	0.301459352318936
184.5043182	48.61923752731578	0.07050832031467866	233.025766325903	0.337937331173678
185.0487976	48.65916021440291	0.061462042114020995	233.21711064196802	0.29457968063625
185.5463562	48.709080146188896	0.06943836366930434	233.456370468962	0.332809166276321
186.0251312	48.675962581345324	0.0722756145241669	233.297642230532	0.346407745528859
186.52211	48.68937952069198	0.07544851994927905	233.36194789907	0.361615074063186
187.0621643	48.61148737483866	0.0874893142905875	232.988620839631	0.41932505618661203
187.8814621	48.538777998121	0.08312209261711652	232.640134127572	0.39839352313647103
188.0235443	48.58384192039388	0.07835111750832392	232.856119724125	0.375526851683148
188.5240784	48.52679465541145	0.08079730971262448	232.582699503747	0.38725113700677793
189.0318298	48.598313428125515	0.07161931659133448	232.925479803603	0.34326219375729
189.5440216	48.49605037939704	0.0748509831367454	232.43534613411902	0.358751156800593
190.0096741	48.50402456075292	0.07177635634796946	232.473565362058	0.34401486515845997
190.5093079	48.53400338749808	0.08197185747874203	232.617250031566	0.392880593724032
191.0077209	48.48437114503616	0.06868243445061183	232.379369062584	0.329186094536971
191.5076752	48.48937543754834	0.06982182264687439	232.40335399441096	0.33464703594781897
192.0496674	48.562367322686484	0.07352884231153342	232.75319473307601	0.352414305491218
192.5608368	48.565804184937036	0.0605785896703924	232.769667172802	0.29034540644440604
193.0561981	48.47619071211453	0.07177064542260002	232.34016129735798	0.34398749342602797
193.54422	48.405679779410214	0.07287377514574651	232.002211445336	0.349274652628158
194.0260162	48.47994051866429	0.07153589665840789	232.358133638951	0.342862372723771
194.5127716	48.466656402793085	0.07163475206581253	232.294464576286	0.343336174005681
195.0748901	48.47564354187888	0.07168248868176218	232.33753878063501	0.343564969480049
195.5100708	48.48905964261932	0.07452358181654271	232.40184042984103	0.357181964287167
196.0227203	48.45439336447256	0.06387106634077055	232.23568940729	0.30612582461311905
196.5154724	48.51357996606752	0.07655350441733107	232.519363193518	0.36691112281963506
197.0037689	48.578975430623764	0.08808671712875363	232.832795263157	0.42218833132725403
198.332901	48.20369564332573	0.07511501513624189	231.034127401025	0.360016628291845
198.5752716	48.21567628629807	0.07138247545757927	231.09154908535598	0.34212704459622395
199.0653229	48.183376363735185	0.07087063897407689	230.936739701452	0.33967387801304405
199.5604858	48.162926326593684	0.0691940777250212	230.838725297717	0.331638335093762
200.0401764	48.21427062764329	0.07513724867203274	231.084811943807	0.360123190775736
200.5263519	48.14317433849899	0.0743477865573629	230.74405655348502	0.35633940016912996
201.0310364	48.221928768159934	0.07651732398134689	231.12151642856	0.366737714632876
201.5350037	48.13171639969331	0.09362486719727146	230.68914012314798	0.448731973913569
202.0294495	48.228659074674745	0.0820226913459808	231.153773924008	0.39312423392636897
202.5126648	48.09541820533494	0.07621603694319919	230.515167535613	0.36529368452218197
203.010498	48.13868471903921	0.06272304820923832	230.722538383552	0.30062352102997403
203.5392456	48.20304996266498	0.07330835631556866	231.031032736476	0.35135754440678196
204.0033875	48.06313234156636	0.07460769524441964	230.360425533706	0.357585109152989
204.5639496	48.116006525056726	0.08099063154972345	230.61384471001	0.388177703763655
205.005188	48.138492052507544	0.08124716762982018	230.72161495759	0.38940724827515
205.5118866	48.16155386350511	0.07738928813865732	230.832147258257	0.37091692694265
206.0615997	48.159576250905	0.06819025945163393	230.822668814845	0.32682716292602504
206.5513458	48.03544503884801	0.07226702513037703	230.227723844795	0.346366577666672
207.0569	48.159630118345774	0.07160804761424587	230.82292699457602	0.34320818299621403
207.51683045	48.197224290686925	0.07876416695113546	231.003111038274	0.37750654465730393
208.7302246	48.04481511375289	0.07505999230615573	230.27263341138402	0.359752910928136
209.0446625	47.92782510768001	0.08523384886678838	229.71191532520902	0.408514899846602
209.5453644	48.07273002149622	0.07073598684642703	230.406425981972	0.33902850764467096
210.0419006	48.05953240318852	0.0820925020986904	230.34317149102898	0.393458827905528
210.5268173	47.9674253839424	0.08311763325094577	229.90171436756498	0.39837214996667003
211.01813505	48.01693664567535	0.0954003121107358	230.13901549143802	0.45724145354695506
211.5411987	47.84481352798178	0.06956416257841974	229.31405147631102	0.333412104304362
212.040863	47.9879314230667	0.07400630306051925	229.999997181617	0.354702713590182
212.5000916	47.98062830942808	0.0832711475339997	229.964994295131	0.39910792422537805
213.0650177	47.95980657387998	0.08441245837881951	229.86519838863197	0.404578080644034
213.5129242	47.95212440681332	0.06671736610112915	229.828378747708	0.319767774108484
214.0088959	47.93561845342458	0.0868530281276478	229.749267831269	0.416275418260096
214.510788	47.91044516201847	0.06535212448001636	229.628615475963	0.313224346215336
215.0306702	47.968132683569436	0.06936828149943618	229.905104363912	0.332473271429551
215.545578	47.90069697425423	0.07933414180820142	229.581893662961	0.380238361004273
216.0480347	47.91872315560557	0.08072933882428952	229.66829083693898	0.386925361261463
216.5466614	47.86402594399272	0.06637798158475931	229.40613412078702	0.318141147673592
217.0061951	47.9429018215675	0.0940333288882068	229.78417608012802	0.450689678381713
217.5115356	47.93221188002294	0.0862255908954601	229.732940562109	0.413268192123121
218.0259247	47.95124616385214	0.07932330752648209	229.82416944189703	0.380186433682319
219.2058258	47.63674902052206	0.07035770189119597	228.31682499227202	0.337215436398279
219.5032806	47.59576094382783	0.07727729629415239	228.120374400538	0.370380164403473
220.00849915	47.564099879248346	0.07338982006151658	227.968626980966	0.35174798968714305
220.546524	47.57087579622843	0.07597616282060439	228.001103081521	0.364143998634821
221.0438538	47.57907753493872	0.07947211191412604	228.040412962658	0.380899634016732
221.5511475	47.539928179686164	0.0864215145396056	227.852775126837	0.41420722900729096
222.0627289	47.51286001044253	0.07792587278734216	227.723040865219	0.37348870830570097
222.53562165	47.47932445798621	0.07381310730557901	227.56230926580002	0.35377675112891205
223.008316	47.52017769152187	0.07779693975484883	227.758113571579	0.372870748826501
223.518158	47.50675158824324	0.08698137694133205	227.693763981491	0.41689057765351495
224.04415895	47.51330681913238	0.08731461009192867	227.725182361932	0.41848772138164
224.5088806	47.53878144304108	0.07763222589806981	227.847278965254	0.37208129644813204
225.03775785	47.44909960352355	0.09074475163954399	227.417445417014	0.434927949640882
225.5620117	47.458440589473724	0.06651908358056163	227.462215563976	0.31881743143233
226.0604095	47.40688464419075	0.07758557135697286	227.215114534235	0.371857687219674
226.5256958	47.384415030270105	0.07685561618239392	227.107420558163	0.368359105740599
227.0444489	47.48792270878017	0.07536117543204644	227.603519578471	0.361196443000717
227.5387268	47.34779250003401	0.07991113886641579	226.931893470387	0.38300383386021103
228.045105	47.324452679058965	0.08684036431523671	226.820028703574	0.416214722232314
228.5519867	47.409358527829	0.10192412300760555	227.226971541048	0.48850924199703605
229.6128845	47.18599522104981	0.08348342164647972	226.15641987511398	0.40012532680607504
230.0288696	47.2469272968083	0.07628238973875837	226.448459495017	0.365611704956467
230.5548401	47.23196694404415	0.08711621758615419	226.37675644402998	0.417536851560503
231.0038452	47.0750907639041	0.0832493664505357	225.624869044009	0.399003530287428
231.5624542	47.13965723476893	0.06863994173204496	225.934327853267	0.32898243238982705
232.0587463	47.25942516488492	0.08249235951348768	226.50836017289902	0.3953752931823
232.5539398	47.08085576846692	0.09090973198771565	225.652499971075	0.435718679278298
233.0289917	47.15200756160154	0.07992537197138726	225.9935213849	0.383072051305853
233.5541382	47.09365029233798	0.07193788102387977	225.713822482111	0.344789032202182
234.0529022	47.013003997164674	0.07269694760847933	225.32729513841198	0.34842714093371696
234.5168762	47.04411403583382	0.07649608103428895	225.476401561507	0.36663589991366297
235.0071564	47.02912609894183	0.08897097980603225	225.404566303335	0.426426488865008
235.514679	47.02936586440319	0.07340636341629955	225.405715468423	0.35182727986366497
236.0088348	46.967622260343276	0.0828374597058386	225.109786297512	0.39702931411869596
236.508194	46.94619186127636	0.08882391092932514	225.007073144875	0.42572160661180297
237.012619	46.904655632049774	0.09988013597507028	224.80799532839598	0.47871267444804605
237.5058136	46.86025346989341	0.07463117655083602	224.59518146315997	0.357697652041366
238.0149689	46.86452937935304	0.0839675446194901	224.61567534848697	0.402445666089848
238.5246429	46.873312534834305	0.10029213870606084	224.65777188559602	0.48068735066676505
239.0279083	46.87875389281638	0.08659391152916275	224.68385161613298	0.41503350565511504
239.9972534	46.608323694703955	0.07348143227024832	223.387714379974	0.35218707524730897
240.0575104	46.61450696583547	0.07707691073567319	223.41735000502902	0.369419742136484
240.5519257	46.59285111572903	0.07310710989710945	223.31355629449098	0.35039299614838004
241.0610809	46.54092221966565	0.08066319840977941	223.064667759519	0.386608358742292
241.5514832	46.55841973775858	0.08863426578441468	223.14853111834103	0.42481266176876803
242.0447998	46.56569926485228	0.06803263328596933	223.183420957544	0.326071680941628
242.5079651	46.4517976157895	0.07767069305936938	222.63750497019998	0.37226566461588
243.03399655	46.50984392543145	0.08635868698503606	222.915713483427	0.413906104600687
243.5133362	46.54396310123795	0.07686906346477641	223.079242314669	0.36842355683941397
244.0189819	46.5310140106765	0.08500043757907566	223.017178985321	0.407396189497477
244.5137482	46.417073329788174	0.08924300447453273	222.47107592344597	0.427730268193124
245.0177765	46.46222735291864	0.07469186352338854	222.687493361847	0.357988516913056
245.5195007	46.54088055488185	0.0841263924892484	223.06446806555698	0.40320700354518896
246.0321503	46.37200125234557	0.08231836454473813	222.255051240211	0.39454135762527004
246.5287628	46.42551393747891	0.06974327177828968	222.511530672953	0.33427055171486003
247.0252533	46.33067597731908	0.08658176449694792	222.056984500142	0.41497528648849696
247.5257874	46.2550342095518	0.08682570858158664	221.694443214086	0.41614447918165
248.0225525	46.32011966566296	0.09056163536746437	222.00638945303	0.434050296847497
248.5187836	46.318889544760125	0.08052235242500046	222.0004936414	0.385933302011536
249.0143585	46.217216161228755	0.07909811557847729	221.513186161536	0.379107117573654
249.5135803	46.302171005518595	0.0756234516637541	221.920363828249	0.36245349932226895
250.408783	45.887951953375094	0.0794133613147697	219.935065066657	0.380618049933283
250.5420685	45.92260425363331	0.08521465345456611	220.101149094982	0.40842289869910303
251.0124817	45.89284418582485	0.07251146806759035	219.958512908985	0.34753816129619897
251.5644989	45.901652754943335	0.09118880673281149	220.00073125039597	0.437056248718823
252.0585327	45.928790687937976	0.08212990888920971	220.13079988072002	0.3936381138522
252.5094147	45.86862021448676	0.07835765879610765	219.84241052294198	0.37555820323607403
253.0117493	45.86398986232477	0.07007690572989618	219.820217839227	0.335869616430792
253.5030975	45.788567521511666	0.09207402200460445	219.458728238404	0.44129897191984097
254.0140228	45.77932987524149	0.08335968987264358	219.414453385267	0.39953229629215903
254.5079651	45.8355204461587	0.07056889358904914	219.683767580927	0.33822765110457204
255.0128021	45.64908027718601	0.08003640535932836	218.790183776278	0.38360422008571504
255.5591583	45.71465704207516	0.09153329877595447	219.104484795147	0.438707354874107
256.0095825	45.64516304251826	0.08152644069712237	218.771408973201	0.39074576824856
256.5021667	45.66161781924013	0.07150542970676528	218.850274606443	0.342716348534269
257.029068	45.62443016759967	0.07211097973066953	218.672038964296	0.345618672090653
257.5003662	45.57763978799705	0.08827422850547939	218.447778679312	0.423087049293199
258.0561218	45.54010979528389	0.09735183950566373	218.26790224033502	0.46659487391792603
258.5479126	45.666061421607424	0.0767578830371051	218.87157222235697	0.36789068331699404
259.0588989	45.57240852171231	0.08372599373119728	218.42270589132	0.40128794367967
259.5074463	45.476677394954926	0.07758644858637781	217.96387888562398	0.37186189166764005
260.0304565	45.46846527914623	0.08552313271213988	217.92451926838598	0.409901400194553
260.8617554	45.30075761971051	0.075678971544733	217.120717978068	0.362719598987122
261.0346985	45.27206243925827	0.07458951840246872	216.983185660516	0.35749798988209097
261.5305786	45.15372121488052	0.06575862733893098	216.415991358403	0.315172662252975
262.0466614	45.23245621947976	0.0939411874864207	216.79335813165	0.45024805646714705
262.538208	45.227852006186595	0.09103523840862178	216.771290728179	0.436320215447886
263.0506287	45.163621212250895	0.08708671706948057	216.463440775366	0.417395459369788
263.5519714	45.02519943633645	0.08125616233858142	215.800002966607	0.389450358759982
264.0022583	45.02678877172307	0.09802341946698355	215.807620447161	0.469813670490944
264.5016785	44.97251486291764	0.08256860978739151	215.547492567044	0.39574075096018096
265.0599365	44.96613858301122	0.08692806705343871	215.516931875699	0.41663507020192003
265.5335388	44.89364250761742	0.07362581361757706	215.16946748951298	0.352879076517085
266.0237122	44.932632165283415	0.08825344593718525	215.35633991529502	0.422987441110322
266.507782	45.03814703834752	0.09875176332183094	215.862059161524	0.473304529121321
267.0145264	44.752405739328175	0.08523099075612915	214.49253778354	0.408501201288984
267.5064392	44.68557938705735	0.0941772310394046	214.172247652706	0.45137938292592705
268.0197754	44.702945281830694	0.08923973411965924	214.255480157848	0.427714593801889
268.5070496	44.687557012584364	0.08655439531243468	214.18172615807498	0.41484410949932
269.054657	44.605421381838894	0.0872069574171471	213.7880606201	0.417971755926116
269.5470276	44.62772481639521	0.09240520153507711	213.894958119804	0.442886272910246
270.0398865	44.6429182305205	0.07780356914023996	213.967778203987	0.37290252261995405
271.2937622	44.23559178256198	0.080890354514525	212.015514809749	0.387697088802162
271.5566711	44.19998350682952	0.08079121628135484	211.844848913653	0.38722193197265203
272.02619935	44.20234103096641	0.0948088423438536	211.85614822430801	0.45440661485560596
272.5572205	44.08975326981199	0.09719518185684192	211.316529533102	0.46584403391047
273.0553284	44.28571169203553	0.07130085484533341	212.255733104137	0.341735847475827
273.51153565	44.11603171417002	0.08982522113261411	211.442478744686	0.430520757921411
274.0322876	44.070536515583086	0.08419990556064297	211.224426096104	0.40355934226269896
274.527771	44.10586616736858	0.0871157341664207	211.393756583377	0.417534534591756
275.0429077	43.9806567556292	0.09260386670105283	210.79364394061102	0.44383844955673796
275.5258179	43.83525455141769	0.07316254264126837	210.09674983479897	0.35065867817763696
276.0268555	43.82255444956871	0.07204448403016804	210.03587987639798	0.345299966731318
276.5499573	43.765158755259186	0.07147469276430503	209.760789678968	0.34256903031342506
277.0424194	43.75658790461505	0.09216508279120474	209.719710691699	0.441735414584493
277.56845095	43.692722729206494	0.0885026806505299	209.413613101568	0.42418199110793403
278.0421143	43.72798378528708	0.08173523765399932	209.58261481843002	0.391746505268663
278.5014038	43.67038161859472	0.07518646055872023	209.306535025365	0.360359057033434
279.0500183	43.593908025192896	0.0688819345984009	208.94000690578798	0.33014227314414396
279.5487366	43.506209301551344	0.08040309438255007	208.519678177455	0.385361713518053
280.0064697	43.5988175249562	0.0806764754854905	208.963537508134	0.386671994062373
280.5296936	43.4295650795701	0.0885212423290664	208.152332256993	0.424270954851202
281.680542	43.159009966518205	0.08087407977379842	206.85559631955903	0.387619086058342
282.0390625	43.14479677531607	0.07842770107571502	206.787474318058	0.375893906893943
282.5340271	43.094926582567815	0.07181490794016884	206.548452883889	0.344199637992676
283.0360107	43.07402213690854	0.08773685210968976	206.448260558441	0.420511473187877
283.5391541	42.985760410633304	0.10632294559174983	206.025233430733	0.5095922341567961
284.033783	43.01213226414945	0.09364622234619284	206.151630340425	0.448834326401915
284.5279236	42.87550880877233	0.09239386539169449	205.496811651229	0.44283194022974204
285.0188293	42.78026238477069	0.08201206190736826	205.04030776364098	0.39307328839113903
285.5176392	42.798964872157924	0.0978846358153511	205.129946385661	0.46914849825830696
286.0283203	42.78686870792637	0.09380348157866208	205.07197102275902	0.449588049722594
286.5084076	42.667153690126476	0.09594292547855773	204.498192305068	0.45984212978718497
287.0384216	42.64816413018279	0.10667268428013817	204.407177781124	0.5112684868094569
287.5541382	42.59221324812319	0.07918040997820112	204.1390123834	0.379501544070968
288.039856	42.49363995073506	0.07500625427781196	203.666563218597	0.35949535145430395
288.5508118	42.43923488197443	0.088572752964917	203.405806705646	0.424517838718648
289.0328064	42.39707193447983	0.08331937561417256	203.203725108933	0.3993390752247
289.5099792	42.38996557319956	0.07476155962140228	203.16966523125203	0.35832256136697105
290.0079346	42.27444146537053	0.09786248856344375	202.615973007246	0.469042349321997
290.5595398	42.24055969605111	0.09646113425397328	202.45358203483102	0.46232583794777
291.0668945	42.156916388274944	0.07976617856866502	202.052690394323	0.38230905775535695
292.1054077	41.73843200195391	0.09344615797527653	200.046948433374	0.447875443545698
292.5205688	41.87742707300982	0.09396038309490548	200.71313397217702	0.450340058555307
293.030304	41.78047210263806	0.07344053425532675	200.248441241089	0.351991056310094
293.5335388	41.67329420696972	0.10153925508557729	199.734751340928	0.486664619435555
294.035614	41.569238147127734	0.07897875985376793	199.236023999268	0.378535060901639
294.5308228	41.512618137404054	0.08737144114723525	198.964651558517	0.418760105336787
295.0108337	41.52496614857379	0.09703289244180636	199.023833991475	0.465066201570257
295.5262756	41.62189592329872	0.09366312861458348	199.488405963061	0.44891535597678706
296.0615387	41.39523700063568	0.09917710538125504	198.402058833111	0.475343139029431
296.531311	41.44096125220646	0.08927901889393368	198.621209303251	0.42790288068370397
297.0183716	41.29877762271807	0.10805511398451044	197.93974141305802	0.517894294979979
297.5047607	41.24239568721518	0.07527288078415392	197.669510031496	0.360773258083922
298.0619202	41.16848616336362	0.08243277508592388	197.315271168235	0.395089712667255
298.5588074	41.21998176794655	0.0701855030861436	197.562082992744	0.336390109623354
299.0569763	41.180436468694374	0.07868628592640341	197.372547448143	0.377133270899972
299.5513306	41.05535259023838	0.10054933219705206	196.773036470295	0.48192004606431404
300.0503845	41.02235404890156	0.07605768037665084	196.61487869625898	0.364534701820079
300.5438843	40.892529250529805	0.09601828020873153	195.992645097641	0.46020329533889
301.0521851	40.84343957313246	0.0999968818342828	195.757364573388	0.47927222236964995
301.5480652	40.80346325429896	0.07455675455150391	195.565763207245	0.357340956948891
302.5410767	40.46118658283514	0.07988996387358722	193.925275044128	0.382902344836899
303.0170288	40.391258461304446	0.0880096301256961	193.590118531271	0.421818863213914
303.509491	40.344757770212524	0.08591013206504468	193.36724668614403	0.411756238430706
304.0274658	40.23390261893793	0.07431593053798438	192.835932171752	0.35618671835622406
304.5317078	40.14573833827273	0.074790204340072	192.413372088348	0.35845985182767504
305.0006104	40.14901005642097	0.10156851658401526	192.42905301358402	0.486804866042539
305.5263367	40.08934195115988	0.09045122381294697	192.143071442074	0.433521108435437
306.0234985	39.99032684135275	0.07791509595694193	191.668504727043	0.37343705634054697
306.5365601	39.890892636007514	0.09111197411779502	191.191929340879	0.436687999854719
307.0430908	39.91906119260604	0.08624389662153188	191.32693761788	0.41335592911907104
307.5351257	39.86016555434143	0.10119904268388809	191.04465838155602	0.485034025052567
308.008667	39.734761395581124	0.09710388457354065	190.44361234131	0.465406457747479
308.5172729	39.736573063951106	0.0873587238402515	190.45229543532201	0.418699152916383
309.02638245	39.69296242665134	0.10180984646416764	190.24327524715002	0.487961529189061
309.554718	39.57021642745095	0.08168878107072342	189.654969424562	0.39152384482663805
310.0415955	39.55279867783088	0.10410061333865733	189.571488385794	0.498940880852115
310.5462036	39.401365281536656	0.07368756404064573	188.84568755029198	0.35317503837062997
311.0469971	39.31818660240252	0.12191187166978902	188.447022815241	0.584307956374612
311.5393982	39.30703231286459	0.10491368861769323	188.393561736878	0.50283784632533
312.0371704	39.2434074312979	0.09035080346146993	188.08861584429502	0.433039806577412
312.989624	38.8853331208087	0.09278684680666704	186.37241162458702	0.444715449721728
313.0452881	38.96949423494901	0.0951743772956136	186.77578504455	0.45615857697152595
313.5168457	38.82165138238905	0.08617008300360506	186.06719322440398	0.4130021499206
314.0432434	38.761097136073616	0.10267085577520155	185.776964492536	0.49208823632643
314.5386047	38.6646158347084	0.09573160787254113	185.314541996212	0.45882931161922197
315.0015564	38.70174109719735	0.09307234879472479	185.492478615162	0.446083824112983
315.5512695	38.547303308576495	0.10039898106951599	184.75227811278202	0.48119943240408597
316.0265198	38.598323196553935	0.08299849157725006	184.996809888648	0.397801119213695
316.5202637	38.352952815520105	0.09805962052292955	183.820781139905	0.469987177506534
317.015686	38.49917223814467	0.09689275137523767	184.5215920687	0.464394523422023
317.5238037	38.292861056647695	0.07719046026473067	183.532769051002	0.36996397045782903
318.0046997	38.131768352564755	0.10127008784752943	182.76067239281502	0.48537453540491404
318.5273743	38.16026696930964	0.09620128514465794	182.89726260574201	0.46108041451237997
319.0229492	38.1293403139088	0.10869405071554643	182.749035115119	0.520956636739242
319.5253296	37.90928340727819	0.09171336991571101	181.694330600798	0.439570412739039
320.0297546	37.934852278128766	0.09823527574430578	181.816878917618	0.47082907044134903
320.5242004	37.77860909683215	0.07552654043780373	181.068025399823	0.361989016252579
321.0262756	37.81974057571673	0.0923226594381949	181.26516329985301	0.442490659232238
321.5257874	37.8167825258057	0.1031571287096493	181.250985746226	0.494418880099475
322.0101013	37.69463454675133	0.08235617925134872	180.665546157456	0.394722598661421
322.5598145	37.61247187623476	0.10822575936345874	180.27175102132801	0.5187121763829331
323.4344788	37.34847293569495	0.09527753711117434	179.00643797741301	0.456653008729358
323.5476685	37.31711790577192	0.11890977666621105	178.856157342677	0.5699193002711739
324.0457153	37.366614910421085	0.08238922706925042	179.093390134177	0.394880992611709
324.5451965	37.19991918067793	0.09440733909408837	178.294438893018	0.452482261303037
325.0284119	37.115843570108325	0.10549115928847824	177.891475280697	0.505605589145542
325.503479	37.13695639406961	0.08185429275424923	177.99266633660602	0.392317121086222
326.0012207	36.89550026624208	0.08330091409978246	176.835398101178	0.39925059155533205
326.5085144	36.84894554507619	0.09666994508656077	176.61226729683997	0.463326641472373
327.0220642	36.879787029605204	0.12271554449627328	176.760086574404	0.5881598570993319
327.5159302	36.78428128678142	0.10504646708779206	176.302339804979	0.5034742364935011
328.0128174	36.672936174733415	0.09623181770321272	175.768676971475	0.461226753147393
328.5852051	36.6235438800294	0.10139669468337724	175.53194604130502	0.485981345722105
329.0154419	36.493556994753604	0.08499732524792795	174.908935580956	0.407381272493681
329.5075073	36.52068084284348	0.09113044747499875	175.038936704139	0.436776540285173
330.0105896	36.38343739616417	0.09922683313295155	174.38114647619298	0.47558147776191795
330.5307312	36.43566963091867	0.09402788225871847	174.63148887458502	0.450663573385523
331.0065613	36.28505769879859	0.10359904985481491	173.909625211454	0.49653695143800597
331.5578918	36.18568451106763	0.10479305422579586	173.433342274885	0.50225966116557
332.0515747	36.067911766627304	0.09143213108868227	172.868872624161	0.43822247113151896
332.5020142	36.02415943146114	0.08434655422388074	172.65917329629897	0.40426221048667
333.8235474	35.70655264177672	0.09952192704996628	171.13692471074802	0.47699582503776394
334.0625	35.583953932746205	0.08513367435495095	170.54932483104298	0.40803477626642193
334.5496216	35.493475387994486	0.11028088312568497	170.115672776854	0.528562120848193
335.0465698	35.51598180589384	0.10037781271948411	170.223543149673	0.481097975218846
335.5512695	35.46512754187111	0.12017179311545312	169.979805188168	0.5759679831620831
336.050415	35.28698743074223	0.08161829705474956	169.126002495646	0.391186023983051
336.5503235	35.2336029256846	0.0967591661982674	168.87013741355798	0.463754266811339
337.0524597	35.189502954800126	0.1030822495374012	168.658771912309	0.494059993835881
337.5444336	35.186007069307905	0.09290215649038334	168.64201658175998	0.445268114238478
338.0191956	35.067906127909026	0.10714344886348783	168.07597392513	0.513524801045823
338.5292053	35.01288071060881	0.08086490974463006	167.812244161236	0.38757513528529697
339.0065613	34.91532645347627	0.09721142924502081	167.34467912560802	0.465921905557039
339.5596313	34.804113731954274	0.10594919727631733	166.811650822906	0.507800906442787
340.0588074	34.86931774322999	0.1042254690669521	167.12416528154	0.49953929833551797
340.5549622	34.59750339423453	0.10416653476624488	165.821393987822	0.499256833795068
341.0011597	34.84936109050084	0.10519767009733648	167.028515605979	0.5041989331148761
341.504364	34.514179033916	0.09150108804961861	165.42203102154897	0.438552972996273
342.0281982	34.44465819492447	0.10289971787734666	165.088826561637	0.493185143012911
342.5186768	34.3632231920814	0.08607848751432427	164.698519043289	0.412563144494617
343.0093689	34.32440462335392	0.09083092399053037	164.51246662483402	0.435340962660953
344.30441285	33.9021090017164	0.0913504802069523	162.488457902096	0.43783112893336906
344.5152283	33.9735732007613	0.11367571660643987	162.830976637359	0.544833122073938
345.0074463	33.831597998976186	0.1038139316646945	162.150507714401	0.49756685237770204
345.5538635	33.88878211803999	0.10421869208377949	162.42458385882898	0.49950681712483896
346.0495605	33.77908398034911	0.08390278448721115	161.898814762068	0.402135279086284
346.5210266	33.61344422497224	0.09602135171673512	161.104924670537	0.46021801668259493
347.0238342	33.56428821863023	0.09856062039859004	160.86932624016399	0.472388405618953
347.5331726	33.616986303044	0.08564303998091971	161.12190139619202	0.41047610034652
348.0377502	33.47564051025865	0.104935498358908	160.4444491498	0.502942377616202
348.5213623	33.314906245832155	0.0939272184911044	159.674070446889	0.45018110486519003
349.0062561	33.324420442897825	0.08595027996860673	159.7196707725	0.411948662180434
