#Executed at: 2018-11-12 10:16:50.921083
#Loaded File	 = ./DD172_6_FCW_100OE.DAT
#Rescale Factor	 = 0.05727350591745316
#[[Data]]
#T/K	M/kAm-1	sM/kAm-1	M_raw/memu	sM_raw/memu
10.0051603	9.743164349971591	2.002307512102211e-05	170.11642982034599	0.000349604495137435
10.0130196	9.753763474468704	2.044446859454507e-05	170.301491382884	0.00035696205893194597
10.5423088	9.726961227115924	1.765321268407893e-05	169.83352199767802	0.000308226507200765
11.0184898	9.73235867167858	1.9609546410732803e-05	169.92776181199002	0.000342384250738824
11.5287514	9.718042677353237	1.728526177501125e-05	169.67780340458998	0.000301802054861528
12.0056334	9.725335488499448	2.0686193317344342e-05	169.805136471239	0.000361182591950261
12.5170965	9.716137287117094	1.737163861114136e-05	169.644535138476	0.000303310201337747
13.0476351	9.732774705018869	2.1587219373483773e-05	169.935025787429	0.000376914579048066
13.5039434	9.716052874552839	1.8398234046544548e-05	169.643061288344	0.000321234639853573
14.0201254	9.716970006527212	1.84287105599236e-05	169.659074486064	0.00032176676221784697
14.5610781	9.75599216629756	1.9104681680417126e-05	170.34040452069797	0.000333569272116015
15.0106859	9.739484534674723	1.994564075651815e-05	170.052179950569	0.00034825248493195604
15.532443	9.750497267274167	2.0690269659644454e-05	170.244463143697	0.00036125376521327
16.0213223	9.727547809983975	2.0364835130752127e-05	169.84376378153	0.000355571652276769
16.5189323	9.724258506291077	1.6864857024781996e-05	169.786332275632	0.000294461754254906
17.0051193	9.740348445868118	1.5157174077189135e-05	170.06726390919098	0.000264645473232157
17.5181885	9.72011845648936	1.8778254169918828e-05	169.714046674543	0.000327869821641152
18.0209427	9.73283019054049	1.825025552417265e-05	169.93599456907998	0.00031865092300227397
18.5459881	9.718569775951632	2.3522722503249716e-05	169.68700658833	0.00041070861869626796
19.0205736	9.717572734242461	1.821980627078334e-05	169.66959816024098	0.000318119276599604
19.5057869	9.713677879650929	2.241823170092017e-05	169.601593687158	0.000391424120835749
20.7192917	9.71139688661328	2.083477857036015e-05	169.56176736605	0.000363776902367192
21.0652332	9.71752731806131	2.0925228259732666e-05	169.66880519008097	0.000365356161187193
21.5175266	9.739402872085654	2.1181965827942128e-05	170.050754115224	0.00036983881968865597
22.0173645	9.728994236910411	1.780107208118754e-05	169.869018511501	0.000310808144115427
22.5496311	9.708925560792789	2.0519275004509834e-05	169.518617819311	0.000358268184840714
23.0380173	9.719089310710547	2.0583080038604968e-05	169.696077706827	0.000359382225845766
23.5066433	9.718359791592317	1.6915981169487213e-05	169.6833402446	0.000295354385915676
24.046339	9.714449655821674	1.6538476649143793e-05	169.615068960906	0.00028876312675847496
24.5325489	9.717817366315998	1.79019865616964e-05	169.673869455836	0.000312570119026729
25.0396729	9.704090943848607	2.125292664390872e-05	169.434205020291	0.00037107780121824603
25.502882	9.700216538147474	1.9908382695484924e-05	169.366557586472	0.000347601956202548
26.0532417	9.720069160155274	1.8304490240997197e-05	169.71318595660202	0.000319597865501354
26.5503254	9.717290424269121	2.0171477079560994e-05	169.664669005498	0.00035219560521812
27.0349255	9.720640976855316	1.9618094458835875e-05	169.723169921978	0.000342533500343264
27.5247059	9.718606971610063	1.6290366339540468e-05	169.687656027505	0.000284431100883179
28.0489731	9.716445409422558	2.0170224781335437e-05	169.64991497860498	0.000352173739990813
28.5542259	9.72271556413516	1.6946418018001693e-05	169.759392382025	0.000295885815728238
29.0602818	9.71596457214686	1.6320534119205925e-05	169.641519521264	0.000284957832732089
29.5553675	9.731768317809038	1.8994407875957948e-05	169.91745418615	0.00033164388265900996
30.003191	9.717210170717232	1.549436279882959e-05	169.663267772055	0.000270532815315361
31.1381168	9.721349641431685	1.5818985214568544e-05	169.735543262234	0.000276200748691167
31.517189	9.720286012929991	1.581591160244315e-05	169.71697222341498	0.000276147083177311
32.0268288	9.702857813444014	1.9448315193653025e-05	169.412674464673	0.000339569140776599
32.5474396	9.713924281077002	1.5449853815303104e-05	169.60589587579	0.00026975568489853903
33.0235252	9.693868606632735	1.553530605816821e-05	169.25572219385802	0.000271247687902306
33.5145988	9.703035748486128	1.8012271947213568e-05	169.415781224758	0.00031449571068993396
34.0489578	9.712495536937729	1.698559380674826e-05	169.580949888699	0.00029656982813709996
34.5334435	9.702613831464289	1.8767304308234226e-05	169.40841451976797	0.00032767863617923205
35.0549545	9.685147523718282	1.7403407225823313e-05	169.103451387754	0.000303864883894246
35.5435333	9.69406420605064	1.9088823294977905e-05	169.259137375359	0.00033329238343624603
36.0244255	9.685817373641466	2.1744869558439648e-05	169.11514702105697	0.00037966716390262496
36.5343323	9.70209588509889	1.9837413619698892e-05	169.399371134749	0.000346362830455849
37.0174561	9.698173760455806	2.0411911862704155e-05	169.330890524382	0.00035639361578673604
37.5024033	9.706829969266842	2.0850531911057245e-05	169.482028623445	0.000364051956957351
38.0185051	9.702062962375098	1.6224133500201578e-05	169.39879630135502	0.000283274670204143
38.56461335	9.697212868285185	1.8619294818290104e-05	169.31411327013103	0.000325094378631642
39.00444605	9.688516406949836	1.9493318917864527e-05	169.16227235877	0.000340354909405402
39.5085869	9.70026580549418	2.0014498831902805e-05	169.36741779829097	0.00034945475244258997
40.0519676	9.70203240658764	2.0201323024726896e-05	169.398262794859	0.00035271671781089405
40.5635071	9.685980080509326	1.893968634525287e-05	169.117987896	0.00033068844035059
41.5251389	9.697437494259185	2.0849372408623646e-05	169.318035257626	0.000364031711952003
42.0405731	9.691706649571211	2.0353732631982055e-05	169.217974250426	0.000355377801759113
42.553688	9.692804359003413	1.8070039209533208e-05	169.23714034502103	0.000315504331716258
43.0209179	9.699121196603954	2.0373647386064088e-05	169.347432835403	0.000355725514960235
43.5005226	9.690989378942216	1.882176715405863e-05	169.205450647802	0.000328629561828919
44.0592537	9.690553544039485	2.114673120509037e-05	169.197840935497	0.000369223620351941
44.5041504	9.69456436853902	1.8446579991375073e-05	169.26787025246102	0.000322078763922042
45.0131645	9.676653260441709	1.887197811057929e-05	168.955140870692	0.00032950624915085503
45.5161209	9.677068931345003	1.9987959353680234e-05	168.962398517952	0.000348991371027441
46.0281487	9.69662385474878	1.4369549618764745e-05	169.303829046615	0.00025089348711209
46.5304413	9.673988253993194	1.784760837146956e-05	168.908609644677	0.000311620671470555
47.0284576	9.670116472942452	2.0206729885833934e-05	168.841008037464	0.00035281112203882503
47.5392036	9.680441784605884	2.0877836931568564e-05	169.02128880599798	0.000364528704802169
48.0337143	9.67450743691724	2.1310787636599243e-05	168.917674620109	0.000372088058784352
48.5376778	9.690519147969015	2.1144662695765867e-05	169.19724037735202	0.000369187504013481
49.0357056	9.67330490551531	1.7502879208923794e-05	168.896678325528	0.00030560167268527696
49.5480728	9.694790216392182	1.6084581705636406e-05	169.271813574064	0.000280838084695194
50.01737595	9.675861517873312	1.8285152467349935e-05	168.941316982042	0.00031926022642483
50.5416832	9.66451043291588	1.666389873788404e-05	168.74312612964698	0.00029095300647216
51.043541	9.689465349873892	1.9404400803162434e-05	169.178840978219	0.000338802392001801
51.9085083	9.68251161474352	2.1708923245404264e-05	169.057428205961	0.00037903953839830897
52.0364723	9.666533304152008	1.7601407597910735e-05	168.778445623429	0.000307321986247519
52.501255	9.664980493097314	1.916368321706876e-05	168.751333418059	0.000334599443671021
53.0509796	9.658514070839857	2.0102041814637363e-05	168.63842916758801	0.000350983259931912
53.5431824	9.636708760219157	1.6910190962044597e-05	168.257706697898	0.000295253288430026
54.0432777	9.65192640131321	1.674030915834266e-05	168.523407930087	0.000292287138532606
54.5139961	9.639386567074656	1.798909036049376e-05	168.304461420044	0.000314090958329336
55.0103836	9.639003608373958	2.0111264649133992e-05	168.297774930461	0.000351144291360823
55.5252342	9.655331736744921	2.021405462401698e-05	168.58286535943697	0.000352939012554094
56.0205612	9.645441344111102	2.1287813549589263e-05	168.41017831199002	0.000371686929385305
56.5303459	9.651432308026548	1.919808502581444e-05	168.514781021733	0.000335200102006749
57.0256882	9.65243840402758	1.868745452851089e-05	168.532347538483	0.000326284452630587
57.5406609	9.638205491997795	1.6583268429845456e-05	168.283839754617	0.000289545194836623
58.0028191	9.652269534800643	2.2822595092782197e-05	168.52939906825702	0.000398484338040626
58.52160075	9.642196055657728	2.2120793240632358e-05	168.353515315699	0.000386230821499115
59.0604553	9.637442301137959	1.7015263089624517e-05	168.270514381085	0.000297087856192149
59.5049934	9.63936276620576	2.2431584906304434e-05	168.304045854967	0.00039165726887113397
60.0056267	9.652287196379827	1.9000280350954556e-05	168.529707440844	0.000331746416542741
60.5091705	9.632807042976744	2.242670948742575e-05	168.189582402381	0.00039157214366707
61.00634	9.633525619269047	1.750078702436212e-05	168.20212880199097	0.00030556514297528
61.500824	9.641053198413763	2.288647697267446e-05	168.333560936695	0.00039959972077945
62.3553886	9.636409897583425	2.1014902896025533e-05	168.25248853234402	0.00036692188751835404
62.525692	9.663280476993808	1.6996446361870478e-05	168.721651000748	0.000296759314618648
63.0413513	9.651077243325457	2.0145868380537824e-05	168.508581563617	0.000351748475282333
63.5195694	9.63412591525605	1.8727627963500737e-05	168.212610017998	0.000326985884022752
64.0124893	9.626940480234005	1.9010235682792183e-05	168.087151747076	0.000331920237433887
64.5255432	9.634195321633122	1.5970930160964702e-05	168.21382185890002	0.000278853719623576
65.0183182	9.648924033253365	1.7348007557840795e-05	168.470986343321	0.000302897601254654
65.5418091	9.622648953357022	1.7970117625982138e-05	168.012221344122	0.000313759692865354
66.0462341	9.609505503880083	1.5016845654220548e-05	167.782735663677	0.000262195327729089
66.5248489	9.624934952985223	2.0485056666135e-05	168.052135080702	0.000357670729912354
67.07681275	9.64289585534131	1.865470493950409e-05	168.365733874217	0.000325712642183816
67.5581589	9.622938585971232	1.8704258354812857e-05	168.017278352761	0.000326577848783534
68.0039902	9.622548403008997	1.74386042351992e-05	168.01046572699303	0.00030447942649666
68.5724258	9.627090873282283	2.1026947536302284e-05	168.089777621743	0.00036713218790216696
69.0618057	9.63504952195376	1.7879070952838358e-05	168.228736264906	0.000312170010660898
69.5427628	9.614576276078433	1.988521461609955e-05	167.87127175234698	0.000347197439681091
70.0581055	9.627346446953057	2.4224467748543447e-05	168.09423995850202	0.000422961146877538
70.5648117	9.602623523321625	2.0253773043386405e-05	167.662575731991	0.000353632499337087
71.0137482	9.634854985938764	1.7139991701092678e-05	168.225339650505	0.000299265627737127
71.5299454	9.624753360402327	1.7218044984602455e-05	168.048964459662	0.000300628444318013
72.7377777	9.623877762840367	1.7834211568909086e-05	168.033676456109	0.000311386762224982
73.0516052	9.618402318472873	2.1213307093003054e-05	167.938074758958	0.000370386040686548
73.5531616	9.597574887495798	2.2424487847773254e-05	167.574426146158	0.00039153335366082
74.0545959	9.602677958726298	1.9282435249863504e-05	167.663526178516	0.000336672863673734
74.5604324	9.616665889352992	1.7287476916719033e-05	167.90775656746501	0.000301840731413143
75.0036087	9.614497259555579	2.0200437306815193e-05	167.86989211753001	0.00035270125310522403
75.5545502	9.607065643020999	1.957192568234126e-05	167.74013549768398	0.000341727389808296
76.0084839	9.597051027988792	2.2690214014606924e-05	167.565279517213	0.000396172953814103
76.5045776	9.598496359085203	1.9083558578796207e-05	167.590515113904	0.000333200461070095
77.0126114	9.591493333680567	2.1221999721397217e-05	167.46824172951	0.00037053781467444904
77.5098038	9.583380386018817	2.1763410200207607e-05	167.32658901361998	0.000379990884992699
78.0270309	9.592210788557054	1.9753442534314212e-05	167.48076854911	0.000344896688580307
78.5219727	9.58888316744323	2.1281274071928914e-05	167.42266801797402	0.000371572749581649
79.0702667	9.600411773908588	2.0341916731059632e-05	167.62395841011403	0.000355171495182745
79.5648041	9.58979452075625	1.910220144467055e-05	167.438580319804	0.000333525967001253
80.0370178	9.579575469601135	2.1428370460321066e-05	167.260154868255	0.000374141064303017
80.60881805	9.582832953630358	1.5058419877057794e-05	167.31703080027702	0.00026292121698924997
81.0706482	9.595721411077152	1.7293504962222358e-05	167.54206429945498	0.00030194598157037996
81.58074185	9.57988390369841	1.6722237863444914e-05	167.265540152294	0.000291971612276473
82.0258179	9.590397771471851	1.6961719453424122e-05	167.44911312560902	0.000296152980016111
83.3096924	9.595457243283487	2.0409053968876664e-05	167.53745190862202	0.000356343716731637
83.5338974	9.601738082923655	2.078371425427496e-05	167.64711587173298	0.000362885315318919
84.08856965	9.55741474065445	1.9322961440447627e-05	166.87322676613	0.000337380454206825
84.5592194	9.577457910453267	1.7716266565830828e-05	167.223182115951	0.00030932743302574897
85.0418015	9.60278434557098	2.0098537686112048e-05	167.665383701344	0.000350922077567236
85.5234756	9.59391531827949	2.023525503146304e-05	167.510529774569	0.00035330917336591196
86.0148849	9.571122194216462	2.225054134767323e-05	167.112560003068	0.000388496233838773
86.526329	9.601138124801489	1.9281533935098883e-05	167.63664055487303	0.00033665712664576297
87.0081787	9.587457838808966	1.8444663714792126e-05	167.397781665874	0.000322045305579441
87.5772324	9.568178219197318	1.9136084589526408e-05	167.061157963469	0.000334117569423928
88.0862656	9.568310062430566	1.5915920159415347e-05	167.06345995688	0.00027789324059111304
88.5656967	9.584615910305788	1.8943722043958645e-05	167.348161366616	0.000330758903973187
89.0778122	9.57547161302768	1.660209810442047e-05	167.18850120383	0.00028987396246265505
89.5694275	9.578979037765368	1.884029975762331e-05	167.249741120638	0.00032895314257132003
90.0470657	9.574505410968928	1.859158925303819e-05	167.17163123850702	0.000324610637243576
90.52742	9.576419090878904	1.8473141123641165e-05	167.20504424299	0.000322542523418525
91.0306396	9.562923578654804	2.1148191728685427e-05	166.969411518785	0.000369249121210875
91.5145569	9.567367725072833	1.91446369003369e-05	167.047006671148	0.000334266893455581
92.0137177	9.55684727423766	1.779369644824607e-05	166.86331875704798	0.0003106793649736
92.5092316	9.573370166086324	1.7413845975209916e-05	167.151809771942	0.000304047145294511
93.7196503	9.553364793316433	2.0122710374929956e-05	166.80251436127298	0.000351344134649838
94.0465927	9.576383878584398	1.7979131646237628e-05	167.20442943350798	0.00031391707838089204
94.5577469	9.56097932727577	1.9196136977637587e-05	166.935464734004	0.00033516608892957396
95.0578156	9.564573076276849	1.8374843140948796e-05	166.998211879364	0.00032082623276863804
95.5373917	9.540640375044157	1.8547706254139007e-05	166.580344999219	0.000323844436568478
96.0309525	9.561850624024467	1.9115274012212296e-05	166.950677645013	0.00033375421507743304
96.5117722	9.566785612950367	1.7418116788331794e-05	167.03684294687199	0.000304121714033642
97.0616531	9.560762700893655	1.965238340723083e-05	166.93168242002398	0.00034313218812823
97.5730972	9.542269859697058	1.997330879060206e-05	166.60879593175397	0.000348735571022823
98.0672684	9.545319179286395	1.9892562785498493e-05	166.662037295985	0.000347325739307266
98.5125198	9.530720247990416	2.44423616212577e-05	166.40713878641898	0.000426765591344903
99.0608826	9.56260878299736	1.786814432008472e-05	166.963915161396	0.000311979230777973
99.5503998	9.548396938835264	1.856271761280098e-05	166.71577522418698	0.000324106536092883
100.00907515	9.550161199175202	1.805949883690608e-05	166.746579351011	0.000315320295966075
100.5272751	9.538688826531642	1.7848902571302347e-05	166.54627080590302	0.00031164326830328
101.0243988	9.55151169773476	1.938665787052829e-05	166.770159164014	0.000338492598977087
101.5107803	9.546443311559488	1.9543029878130405e-05	166.681664735498	0.000341222866752688
102.0227661	9.53692792143943	2.0166415679734428e-05	166.51552526197298	0.00035210723277181197
102.5322418	9.554323462245423	1.7265516848991494e-05	166.819252797547	0.000301457306871974
103.0238876	9.538436769223493	2.1819621449561176e-05	166.541869865117	0.000380972337908024
103.9656143	9.546311068027906	1.68014853923901e-05	166.67935575284602	0.000293355280478301
104.0246735	9.537383528325014	2.1403183931338105e-05	166.523480194682	0.000373701305489941
104.5249023	9.565944524245992	1.8476217053649286e-05	167.022157470736	0.00032259622940279903
105.0779724	9.540750996982073	1.7753461885702633e-05	166.582276467114	0.000309976866289454
105.5531006	9.526690007243571	1.4980913767481591e-05	166.336770460222	0.000261567954109064
106.0421982	9.524953694114455	1.7029702531794294e-05	166.306454293937	0.000297339970008799
106.5362625	9.52282913590264	2.013762675170387e-05	166.26935933741598	0.000351604575782871
107.0246277	9.531406748635458	1.950005516255987e-05	166.419125142659	0.00034047252477724697
107.5433197	9.523370943547828	1.951406510853129e-05	166.278819342291	0.000340717139555878
108.05574035	9.551776093309229	1.932239679439757e-05	166.774775531918	0.000337370595441572
108.5077972	9.524051320919465	2.2591031511157552e-05	166.290698785687	0.000394441219360963
109.0018616	9.536211973454657	1.9206718174307308e-05	166.503024752823	0.00033535083747081
109.5033531	9.522948422886378	2.1804630744398917e-05	166.271442097705	0.00038071059899537796
110.05374525	9.548514289815625	1.786908050077911e-05	166.717824181702	0.00031199557656786997
110.5264893	9.547090824752882	2.1141031928117973e-05	166.69297036771	0.00036912411051958304
111.030632	9.523522327843736	1.910421656713878e-05	166.28146252422098	0.000333561151200927
111.5118484	9.552280325495664	2.0927301841123373e-05	166.783579466274	0.000365392366084335
112.0529709	9.545454461690351	2.182293185493432e-05	166.664399337592	0.000381030137850949
112.5320969	9.523483302682298	1.766389494205705e-05	166.280781141777	0.00030841302028053897
113.0175934	9.51454081469585	2.0675377983828835e-05	166.124644585385	0.000360993755360947
113.5193787	9.530283635999899	1.7414515788634876e-05	166.399515506099	0.000304058840290552
114.3680344	9.531757875172023	1.966059136813708e-05	166.42525584010698	0.000343275499782978
114.5537491	9.531942739180236	1.9245435844373002e-05	166.428483580495	0.000336026851090816
115.040535	9.532159924879316	2.0108957122768043e-05	166.432275660194	0.000351104001765678
115.5078659	9.526609734904083	1.9997828359240907e-05	166.335368898746	0.00034916368465487803
116.0307846	9.539735560686541	2.0544835107199767e-05	166.56454686807402	0.00035871446628063096
116.5634308	9.52766894101409	1.954645236180798e-05	166.353862722252	0.000341282623591784
117.0360489	9.520350185910932	1.9127552599370642e-05	166.22607667203698	0.000333968600192534
117.5392227	9.51849165080129	1.821284095338965e-05	166.19362650018402	0.00031799766160010097
118.0370865	9.502100001272934	2.0349974328484648e-05	165.90742698671298	0.000355312181479069
118.5184937	9.53013397748124	1.896355400139341e-05	166.39690245637797	0.00033110517153821695
119.0216599	9.515815520572982	1.6848655159613856e-05	166.14690105208302	0.00029417886839156295
119.5052109	9.513341289778985	1.989395264873689e-05	166.103700784274	0.000347350006430714
120.0463104	9.530450069362693	1.8396181364487994e-05	166.402421445942	0.000321198799860479
120.5037384	9.529288411538353	1.769565023293322e-05	166.38213880729901	0.000308967470202322
121.0346146	9.52230775017862	2.0523146462884396e-05	166.26025590092001	0.000358335780813975
121.5040894	9.517561171613965	1.9643011389250537e-05	166.177380259057	0.00034296855194374703
122.0035553	9.50632820911497	2.0563906090750098e-05	165.981251834246	0.00035904744718069697
122.5643387	9.53860682881719	1.8797016995658935e-05	166.544839119242	0.00032819742208117303
123.0444183	9.535198832518871	2.0494329229725412e-05	166.48533523094798	0.000357832629615225
123.5264511	9.516379841610954	2.0005318304611383e-05	166.156754142599	0.00034929445970087003
124.0037994	9.50946096769216	1.9997439159215512e-05	166.035950049887	0.000349156889191266
124.8110733	9.517505972606607	2.1682386638691658e-05	166.176416479968	0.000378576207119954
125.0444717	9.52823888315778	2.098315732393113e-05	166.36381395772398	0.00036636760728727904
125.50611495	9.516768361943818	2.1164498330710514e-05	166.163537738725	0.000369533835788128
126.0243912	9.518608154293096	1.883954838717953e-05	166.195660660481	0.000328940023583199
126.545372	9.51299375398076	1.9451109819614866e-05	166.097632781405	0.000339617935169697
127.0074539	9.52900335673115	1.944444010730765e-05	166.377161727537	0.000339501481458677
127.5480957	9.51133820621957	1.7426885959119953e-05	166.068726784912	0.00030427482445787203
128.049942	9.48972184231711	2.114402902152858e-05	165.69130334005402	0.000369176440010551
128.5317078	9.5079810380809	1.7673122815857255e-05	166.01011036035598	0.000308574139696094
129.0026703	9.529684956368888	1.9136745623066434e-05	166.389062511797	0.00033412911112247495
129.5428619	9.503824148414727	1.684210378553855e-05	165.93753073388498	0.00029406448087554904
130.01781465	9.514503561273825	1.8335884932585004e-05	166.12399413765303	0.000320146019330684
130.5424652	9.534425704622484	1.7811545532516292e-05	166.471836355962	0.000310991011414381
131.06410215	9.517876988925027	1.871721913897287e-05	166.1828944546	0.000326804145112917
131.514328	9.51526156038382	2.1816557209290216e-05	166.137228862817	0.00038091883602749696
132.0010071	9.515724082240604	1.7153716816263427e-05	166.145304531477	0.000299505269347168
132.5441895	9.527531474556293	2.319761279322253e-05	166.35146254689002	0.00040503217712316503
133.0450745	9.510130589931169	1.9561667919792626e-05	166.047641707806	0.000341548288452716
133.5320282	9.503177601567874	1.971052957482949e-05	165.926241974161	0.00034414742487106996
134.0046387	9.527284031947708	1.9315968283381346e-05	166.34714217912799	0.000337258353124409
135.2167664	9.522945264990955	1.8451745131759825e-05	166.27138696059802	0.000322168947686804
135.5201874	9.516504427201774	2.023156995918479e-05	166.158929416992	0.000353244831708819
136.0234833	9.530839779616674	1.7931477446342693e-05	166.40922581818597	0.00031308503223439604
136.5174561	9.520317418459623	1.8648648602995702e-05	166.22550454971298	0.000325606898063365
137.0155029	9.5273363479542	1.936411766631407e-05	166.348055620791	0.000338099045206401
137.5539093	9.519502897946333	1.7566598480342993e-05	166.211282956321	0.000306714216267139
138.0206299	9.54230704039949	2.0268339649166617e-05	166.609445109796	0.000353886833440559
138.5658722	9.518851437695727	2.01923617861434e-05	166.199908408174	0.00035256025386757597
139.0363007	9.513294431147292	1.9659319325520473e-05	166.102882628812	0.000343253289817022
139.5150299	9.508957896106013	1.808008925513618e-05	166.027166379705	0.000315679806317332
140.0520325	9.517488051110687	1.896029785980351e-05	166.176103569214	0.000331048319045293
140.5285492	9.493701231177436	1.995000162707667e-05	165.76078378824	0.000348328626081143
141.0090179	9.505301330290138	2.2971941546787647e-05	165.96332244772802	0.00040109193908779604
141.5583496	9.520487001432599	1.8649301007369926e-05	166.22846548200198	0.000325618289095986
142.0436249	9.51281021533617	1.5808027491273033e-05	166.09442818197198	0.000276009425964891
142.5228271	9.531150770853769	2.1734424348839954e-05	166.41465575009101	0.000379484789706522
143.04157255	9.485988243730787	1.8105177792751757e-05	165.62611440973598	0.00031611785419328596
143.541275	9.524377736369258	1.694275964416129e-05	166.296398025581	0.000295821940228008
144.0056915	9.527964406459681	1.9065174821250078e-05	166.35902157259403	0.000332879479191098
144.5592041	9.507077498116235	1.7954389637449e-05	165.994334480214	0.000313485080926008
145.6870575	9.508972619455323	1.876099980287179e-05	166.02742345056302	0.000327568559010715
146.05513	9.52250666004417	1.9165460818041773e-05	166.263728883102	0.00033463048072636696
146.5335083	9.520753853697173	2.1545350326299316e-05	166.233124743912	0.00037618354213119203
147.0167084	9.50408604032943	1.95097704850936e-05	165.942103387689	0.000340642155086726
147.552948	9.507684090143885	1.96392900198355e-05	166.00492562559498	0.000342903576535739
148.0499115	9.521497265811018	2.0655435964939494e-05	166.24610477895502	0.000360645566114106
148.5463562	9.521617750190178	2.0966508311915524e-05	166.24820844586398	0.00036607691420417
149.0288849	9.506838951513414	1.7736497616993436e-05	165.990169437425	0.00030968066879922797
149.5012512	9.50619319445177	1.8809972811863266e-05	165.97889446741402	0.00032842363166965197
150.0656128	9.518438532998305	1.7121633939694034e-05	166.19269905909002	0.000298945099752947
150.5526581	9.50763415390592	1.6151824790632092e-05	166.004053734881	0.000282012154344302
151.0344543	9.51663180764163	1.809764501203795e-05	166.161153489673	0.000315986331238769
151.5155411	9.502925405965973	1.9105020023342685e-05	165.921838618755	0.000333575179610591
152.0202179	9.511322085507713	1.9419527832076564e-05	166.068445315992	0.00033906651113807204
152.5106964	9.481613527614465	2.184953802341807e-05	165.549731516001	0.000381494683683399
153.0172119	9.50689751299773	1.9129712402455793e-05	165.991191925631	0.000334006310527366
153.5187225	9.485961615203726	2.034461564876996e-05	165.62564947352098	0.000355218618502107
154.0298767	9.489309261540937	1.7802537225384258e-05	165.684099646661	0.000310833725650436
154.5288239	9.47642731642223	1.934957960503987e-05	165.45917985325298	0.00033784520949228997
155.0265961	9.493454926384025	1.9079785866374056e-05	165.756483286822	0.00033313458920907103
156.1322784	9.492530995388947	2.2225732823142333e-05	165.740351377656	0.000388063075013702
156.5143738	9.486982665090693	1.6992724236774145e-05	165.643477086317	0.000296694326016384
157.0355682	9.478444612561878	1.722464441330323e-05	165.494402005404	0.000300743670871636
157.5572052	9.474919367650886	2.3678725405074766e-05	165.432850946943	0.00041343244185544203
158.0282593	9.466536644051033	1.9477263082175446e-05	165.286487921569	0.00034007457322845797
158.5041046	9.473857118956436	2.176730088953829e-05	165.414303999669	0.000380058816739994
159.0669556	9.46910423489625	1.6053893635227585e-05	165.331318263349	0.000280302268528238
159.5561829	9.454908783552435	2.3220458084144738e-05	165.08346454606	0.000405431057732205
160.0366974	9.455843058504193	2.4207877804407833e-05	165.099777061538	0.000422671485124344
160.5392609	9.448484556730651	1.7524809048821996e-05	164.97129703127501	0.000305984569446125
161.0197601	9.43539102507527	2.40983970704341e-05	164.742682919992	0.00042075994274152703
161.5080719	9.446715842669276	1.9066815943382016e-05	164.940415142118	0.000332908133314949
162.034729	9.443553347213761	2.2580984379200037e-05	164.8851977182	0.00039426579563237203
162.524826	9.43782532180037	1.87808737547849e-05	164.78518593576	0.0003279155598027
163.0061188	9.43172109144854	1.6527651666490528e-05	164.678605584967	0.000288574121694443
163.5699615	9.415788903345593	1.755068779529004e-05	164.40042830477898	0.000306436414431926
164.00820925	9.426264158374948	2.109987468143559e-05	164.58332709649	0.00036840550169647905
164.5230103	9.413174193020678	1.851489809745559e-05	164.35477525310998	0.00032327160352538296
165.0085754	9.392464578835805	1.896461055251898e-05	163.99318373093703	0.000331123619005482
165.5527344	9.408256269960834	2.2706666380434163e-05	164.26890792263902	0.00039646021343901495
166.5473328	9.366443826937822	1.918732440697449e-05	163.53885931895698	0.000335012220740052
167.0304108	9.371275633449189	2.183029618908386e-05	163.623223047595	0.000381158719714964
167.5077057	9.355151312604816	2.213311199479336e-05	163.34169111435497	0.00038644590793329904
168.0115356	9.365090884595544	2.0563311971762547e-05	163.51523683731202	0.000359037073815595
168.5491333	9.342966538215201	1.9991736340196928e-05	163.12894397770899	0.00034905731751449804
169.0263672	9.340447023163048	2.2311422829780744e-05	163.084953043126	0.000389559229391992
169.5140839	9.330003365412134	1.8478908653944037e-05	162.90260594242702	0.000322643224959499
170.0047455	9.320891284983567	1.652145687701627e-05	162.743508288414	0.00028846596017412
170.5186005	9.332050028831341	2.1636797435625028e-05	162.938340849631	0.000377780215983453
171.0527039	9.326746688343125	1.8047872871716372e-05	162.845744099995	0.000315117305682811
171.5361328	9.29757373236448	1.917520621974813e-05	162.336381952326	0.00033480063622060897
172.0221405	9.286824258908805	2.1429884409971305e-05	162.148695284931	0.000374167497985153
172.5076141	9.268713229689757	2.2189979393497675e-05	161.832475264366	0.000387438817268835
173.0041199	9.257836725956423	1.8726531633068338e-05	161.64257063814998	0.000326966742005604
173.5546722	9.241559467001677	2.0299865804307622e-05	161.358368393255	0.000354437282634056
174.0287476	9.249604384208968	2.082946444678955e-05	161.49883329196203	0.000363684117344074
174.5048676	9.256091310278851	1.788557506484551e-05	161.61209554064	0.00031228357297741704
175.050415	9.213898932313782	2.299826981434347e-05	160.87541324244302	0.000401551632747789
175.5334778	9.208599119997643	1.905195457353759e-05	160.782878094974	0.00033264865260731
176.0247803	9.212617331563065	1.586817797672763e-05	160.8530363907	0.000277059658258009
176.9481659	9.168705994550162	1.9758252856777955e-05	160.08634092986702	0.00034498067719575297
177.0168152	9.190501451774244	1.759282536186711e-05	160.46689135846302	0.00030717213971889897
177.5142059	9.17628186500207	2.175651469924633e-05	160.218616234662	0.000379870488993697
178.0498657	9.140759932048816	2.0744286740179032e-05	159.598400440566	0.000362196907765298
178.5335846	9.148036852446433	1.9889064184306987e-05	159.725456053472	0.000347264653450281
179.0262604	9.10869153336651	1.812705544537948e-05	159.03848363141302	0.00031649983976021203
179.5499115	9.102943931393082	1.8448305464787125e-05	158.938130040667	0.000322108890825999
180.0201111	9.096634050350206	2.0067671273690584e-05	158.82795901233902	0.000350383147534457
180.5586243	9.078984468731589	2.02413222950724e-05	158.519795903832	0.000353415108274421
181.0365906	9.067223505429865	2.4300014434647946e-05	158.314448542721	0.00042428019806698997
181.5118866	9.085026707557214	2.1658790322974367e-05	158.625293877613	0.000378164213557847
182.0067291	9.043784442735577	2.2930297285111454e-05	157.90520063098901	0.000400364826943898
182.51992035	9.041024745449157	2.0937267646042227e-05	157.85701609536102	0.000365566369836318
183.0132751	9.021677800406906	2.064663904555501e-05	157.519216885546	0.000360491971197162
183.5485382	8.975443840267516	1.7852496733531032e-05	156.71196823892	0.000311706022663627
184.0202942	8.993243754805134	2.3892654264811603e-05	157.022756172232	0.00041716765687868797
184.5107117	8.94132882544591	1.9485470155558447e-05	156.11631734807398	0.000340217869386979
185.0010071	8.943806722826583	2.287466587323889e-05	156.15958163478	0.000399393498037427
185.5127869	8.913650873461672	2.085667875503131e-05	155.63305808987297	0.000364159281345401
186.0400085	8.905022124864088	1.91317175552666e-05	155.482399448336	0.000334041320656023
187.3567505	8.871095608335287	2.0890971229888504e-05	154.89003975277802	0.00036475803070268
187.5432892	8.857560518725132	2.1553537450940538e-05	154.653716004243	0.000376326489983084
188.0337677	8.847137973630815	2.1039432472221967e-05	154.47173753221898	0.000367350175883166
188.5441895	8.805200154842662	2.0475625670665478e-05	153.739499857637	0.000357506063976186
189.0250854	8.810804584604966	2.5297744251710704e-05	153.837353650111	0.000441700640574923
189.5005341	8.762933382632793	2.550325620449405e-05	153.00151862996802	0.00044528889572870297
190.0413208	8.75763320808	2.280877378515683e-05	152.90897715781801	0.000398243016902624
190.5398407	8.730935784043846	2.0678886500266042e-05	152.442837996115	0.000361055014338916
191.0163727	8.708577459010462	1.8237916869382997e-05	152.052459850492	0.00031843548910152
191.5169983	8.704876584041632	2.255824299950402e-05	151.987842277156	0.000393868729321663
192.08834075	8.657088623631294	2.284089022904191e-05	151.153460661349	0.000398803772584865
192.5245209	8.669984719344031	2.1190713554941075e-05	151.378627525262	0.000369991555702609
193.0180511	8.62787707916538	2.146814992444091e-05	150.64342475560198	0.000374835616932241
193.5534363	8.617252659913897	1.673020653727207e-05	150.457921544627	0.000292110745959657
194.0102539	8.586390116732765	1.7702589996029626e-05	149.919059069094	0.000309088639021748
194.5240784	8.579889838765302	2.2806337304700973e-05	149.805563695215	0.000398200475758742
195.0182037	8.547828153723508	1.9655357506438723e-05	149.24576410676298	0.000343184116138577
195.5114594	8.530035212103908	2.3423939364335706e-05	148.935097921158	0.000408983857179898
196.0613098	8.481939112322037	2.0086513372268748e-05	148.095336167247	0.000350712132084579
196.5667267	8.496378817100057	2.3931184683292122e-05	148.347454569058	0.000417840401071021
197.7236328	8.435723126506103	2.32962506455673e-05	147.28840135374801	0.000406754401924401
198.0200653	8.416383177374145	2.0247586505024754e-05	146.950724293087	0.00035352448188185096
198.5081177	8.393633969365471	1.8893335725398908e-05	146.553521299412	0.000329879154816005
199.0442047	8.37116528791071	1.8164324643340826e-05	146.161216321834	0.00031715056294127697
199.5300446	8.341596013470534	2.0896617735459537e-05	145.644934422088	0.000364856619142144
200.0234146	8.32987641226684	1.9033845570475288e-05	145.44030924652102	0.000332332467963604
200.5054321	8.319611764284033	1.8819059930643555e-05	145.261087670709	0.000328582293491287
201.0312042	8.272554645505107	2.4931665839904028e-05	144.439466608315	0.00043530888218782
201.5124512	8.274551287077518	2.1687707605917465e-05	144.474328130068	0.00037866911163383996
202.0551453	8.19795292366055	2.068994933396226e-05	143.136914570518	0.000361248172301206
202.5431519	8.201921986121851	2.1456061857946787e-05	143.20621471895	0.000374624558323195
203.0277557	8.177339415575299	2.086892778516985e-05	142.77700106854098	0.000364373150392569
203.5306549	8.177499686522772	2.1713420129731088e-05	142.779799412119	0.000379118054358783
204.024231	8.13687942869107	2.165068592490376e-05	142.070566457352	0.000378022710118503
204.5215759	8.072477506397721	2.119417338621499e-05	140.946103736558	0.000370051964633728
205.0025635	8.074610324586713	1.9782761807638356e-05	140.98334291294202	0.000345408605440546
205.5567322	8.042919162125223	2.236964414568965e-05	140.43001267841498	0.00039057577823034697
206.0380707	8.02103928548245	2.4678428798207648e-05	140.047988280008	0.000430887343159611
206.5173798	8.02776518131152	2.4597708885022668e-05	140.165422959819	0.00042947796701104204
207.0252991	7.997213595175252	1.9610365648839403e-05	139.631989819192	0.00034239855470177296
208.1214752	7.941882675013374	1.86213508338698e-05	138.66590752205403	0.000325130276828317
208.5223541	7.899408515479182	1.9853225023076176e-05	137.924305295094	0.000346638898825054
209.03964995	7.886871706527612	1.8922286032377934e-05	137.705411606804	0.00033038462949431
209.5571136	7.833453692839565	2.2777942426247215e-05	136.772728809892	0.000397704698906969
210.0315247	7.82993073113368	1.8842697734481432e-05	136.711217616375	0.000328995011439302
210.5264587	7.827939250582384	2.223142272642147e-05	136.676446206464	0.000388162421180625
211.050766	7.799261391663	1.7053177500093024e-05	136.175728493099	0.00029774984483526
211.5349274	7.738744449625315	2.201045354453846e-05	135.119097838693	0.00038430428156889095
212.0475769	7.719755603966401	2.1505658385019956e-05	134.787551072789	0.00037549051765777203
212.5016937	7.7162851144085005	1.774801578013344e-05	134.726956047178	0.000309881776850071
213.0426483	7.68933754026931	2.2046738569475206e-05	134.256449244643	0.00038493782101013
213.5168915	7.640825727051179	2.049201938995948e-05	133.409429100843	0.000357792299627931
214.0187073	7.63607518977977	2.3491991704714997e-05	133.326484339643	0.000410172056492812
214.5144196	7.588054929360754	2.036753197273257e-05	132.488046747081	0.00035561873935372097
215.0034637	7.556780124114188	2.1005211965666237e-05	131.94198614287	0.00036675268309819403
215.5471954	7.557890950932213	1.7027888676919347e-05	131.961381268072	0.000297308299957422
216.0341187	7.5328552080650315	1.9222150040578737e-05	131.52425519265302	0.00033562027909175195
216.50634765	7.498100611177056	2.290768442602933e-05	130.917437147708	0.0003999700046134
217.0427399	7.458536522931662	2.585301270246397e-05	130.2266449985	0.00045139567219309497
217.5242767	7.43277282796907	2.152714984312911e-05	129.776808821198	0.000375865760237476
218.502182	7.394900437399586	2.4306542794107347e-05	129.115553848889	0.00042439418374596704
219.0276031	7.363009747662262	1.7639661748727943e-05	128.558739852147	0.000307989906784326
219.5109863	7.313235099587924	2.088732077819968e-05	127.68967051062499	0.000364694293523851
220.0039825	7.33532728766846	2.3247510783702836e-05	128.075401883738	0.000405903400032973
220.5277252	7.2950384898052825	2.306622123411315e-05	127.371956246566	0.00040273806997877704
221.0166473	7.257570445422132	1.8632811176836917e-05	126.71776119105199	0.00032533037533431097
221.5511169	7.23235709043627	2.1785950180612603e-05	126.277533993817	0.000380384434855658
222.0246277	7.194132298960177	1.9806241362597548e-05	125.61012607345701	0.000345818560350466
222.5223694	7.17598078104843	2.0487936294286337e-05	125.29319911707498	0.000357721008450488
223.0504608	7.159741470826612	1.9531999580393087e-05	125.00965946009599	0.000341030276870846
223.5299225	7.1164443218869895	2.4372104302446566e-05	124.253687772209	0.000425538892931986
224.0515442	7.081216970822151	2.2812353766920544e-05	123.638615401476	0.000398305523670917
224.5362244	7.061771499575855	2.2381075709719013e-05	123.299095916248	0.000390775374253783
225.0576172	7.036112451461344	2.049114284328051e-05	122.85108688129401	0.00035777699505271896
225.539093	7.034196832518107	2.234897079177483e-05	122.81764002113499	0.000390214819815393
226.0276794	6.9944808663591935	2.0900575568837637e-05	122.124196071394	0.000364925723229884
226.5153961	6.995489090424118	2.256655624570943e-05	122.14179974431	0.000394013879266166
227.0437317	6.945349611644342	2.119923449542633e-05	121.26636042945401	0.000370140332005871
227.52949525	6.940112520049972	1.8260564095996715e-05	121.17492039081	0.000318830911491872
228.0229187	6.903047787275887	2.290477974306072e-05	120.527767188289	0.00039991928861614996
228.967392	6.842123690933476	2.154897735974286e-05	119.46402758711601	0.000376246870425583
229.0147095	6.840128026598563	2.129694520371728e-05	119.429183128008	0.000371846368797678
229.5162201	6.831483759814481	2.2355719788322226e-05	119.27825353769201	0.000390332657835596
230.0250702	6.800062655981955	2.164360108080063e-05	118.729638548454	0.000377899008173081
230.5504913	6.778981649214406	2.3960059158000236e-05	118.361562482045	0.000418344551711803
231.0358429	6.729424357461618	2.3985896398213014e-05	117.49628819930399	0.000418795671995063
231.5344696	6.698146608636171	2.5850523899720608e-05	116.95017619997	0.000451352217497883
232.0014648	6.714528384277282	2.0063520507835043e-05	117.236203314579	0.00035031067483021
232.5483551	6.676570424431549	2.0492326388644552e-05	116.573454295854	0.000357797659849558
233.02742	6.646069262746934	2.076156766564893e-05	116.04090157019101	0.000362498634107925
233.5234375	6.598651719029703	2.3314139422608787e-05	115.21298745951	0.000407066741404147
234.043457	6.5926613927092115	2.1668333386051292e-05	115.108395882226	0.000378330836203415
234.5210266	6.569459232952547	1.759396857299611e-05	114.703284314757	0.000307192100276764
235.0474854	6.549735645527535	2.2807211843732965e-05	114.35890889877601	0.000398215745280277
235.5211029	6.545948897024115	2.039838523901685e-05	114.292791966649	0.00035615743985389204
236.0153351	6.514524409945538	2.855179009847782e-05	113.74411790566401	0.0004985165416559061
236.5110016	6.4899399949113405	2.369953581263685e-05	113.314872050353	0.000413795793238053
237.0003052	6.453721247102449	2.061183894793427e-05	112.68248981307401	0.000359884358705779
237.5008087	6.446348107367867	2.0588540444141154e-05	112.55375420283899	0.000359477564963718
238.0344391	6.4038024861711875	1.824891534992198e-05	111.810904249529	0.00031862752345253103
238.5280914	6.3837739575284695	2.416455312484849e-05	111.46120453546601	0.000421915032749632
239.3625183	6.349660106011208	1.7697010314529982e-05	110.86557395600701	0.000308991217335922
239.5358276	6.352128192630691	2.1819088995745996e-05	110.908666946037	0.00038096304122177003
240.0160828	6.3143614606264675	2.4105128250881256e-05	110.249256780739	0.000420877469691193
240.5474701	6.279813444924586	2.241160860554868e-05	109.64604565984699	0.00039130848106016
241.0389709	6.259205884034566	2.376903562878674e-05	109.28623599637501	0.000415009265593841
241.5151978	6.247917095232124	2.344463039934377e-05	109.089132839835	0.000409345124308156
242.0536499	6.212475745486176	1.9974201108932857e-05	108.470324034992	0.000348751150972339
242.5358124	6.2056456032822185	2.6524628059941754e-05	108.351069205127	0.000463122130120182
243.0145111	6.17758653447205	2.1101880339896538e-05	107.861155616624	0.000368440520653828
243.5678711	6.138902572560339	2.036426132436688e-05	107.18573054368599	0.00035556163357133
244.0424652	6.1393920702712865	2.188025889257365e-05	107.19427721291999	0.0003820310725191
244.5136414	6.1107760191822695	1.87115104619291e-05	106.694638669223	0.00032670447115456
245.0116882	6.080084046709331	2.188373516483842e-05	106.15875437191501	0.000382091768511236
245.5005035	6.053628922708268	1.9094494512800538e-05	105.69684578822901	0.00033339140335360203
246.0419617	6.06005994666285	2.5110301058346006e-05	105.80913198149699	0.000438427867407608
246.51011655	6.02226467638752	2.1589909788494557e-05	105.14922353570002	0.000376961553909613
247.0180359	6.0077336676524515	2.1561679976558264e-05	104.895510959487	0.00037646865913245405
247.53862	5.962885311718017	1.829103898173335e-05	104.112455073244	0.000319363005437379
248.0153046	5.954388573811158	2.5918575775470076e-05	103.96410134893901	0.00045254040869832304
248.58231355	5.928911517364082	1.9425647389805112e-05	103.519269903073	0.00033917335910609004
249.8557129	5.894060274201525	2.1027270066372078e-05	102.910764406434	0.000367137819303015
250.000061	5.885002561330751	2.421104716080702e-05	102.75261601433401	0.00042272682234088804
250.5228729	5.86408577531249	2.260385523511988e-05	102.387407255359	0.000394665122608318
251.0389862	5.827216709002968	1.989360478283972e-05	101.743670404979	0.00034734393266429097
251.519165	5.7839151662101305	2.2491210381155356e-05	100.987622000063	0.000392698334437067
252.0397644	5.78625464538628	2.8555097957554337e-05	101.028469493833	0.0004985742971402881
252.5371552	5.765999770357575	1.9308914549883746e-05	100.674817753744	0.00033713519437265097
253.0451202	5.7681412094352025	2.067044509354451e-05	100.712207451534	0.000360907626701538
253.5126114	5.720984585029883	2.0500531000376533e-05	99.88884901293439	0.000357940913027455
254.0372925	5.690008642042141	2.432734371295522e-05	99.3480065676965	0.000424757369454868
254.5236816	5.675237150132252	2.355893093834692e-05	99.0900951359923	0.00041134082087277503
255.0161591	5.640574378337049	2.4614929870252658e-05	98.4848803645208	0.00042977864679227996
255.5461121	5.6352350562693285	2.6875744773168592e-05	98.3916553736251	0.000469252656051891
256.0260315	5.613033937124757	2.6742628675640577e-05	98.00402205541039	0.000466928438328606
256.5170898	5.568515911513093	2.7512315534639914e-05	97.2267337630571	0.0004803672325262
257.0309753	5.555830190856038	2.7724916303173868e-05	97.0052400644639	0.000484079258970685
257.5083923	5.570423076453806	2.195943250612127e-05	97.260033015655	0.00038341345015216704
258.0561829	5.538146143538615	2.773535146283701e-05	96.69647518209561	0.000484261457694091
258.5285034	5.530240433516615	2.4194377888465097e-05	96.558440851992	0.000422435775510859
259.0581055	5.511673742001821	1.9113128186255357e-05	96.23426493125208	0.00033371674878437897
260.2966003	5.446503675297637	2.3398690802202678e-05	95.096390347529	0.000408543015263054
260.5205688	5.432990541563679	2.410998610129115e-05	94.8604499503507	0.000420962288148385
261.0551147	5.423969117879384	2.4092322206062872e-05	94.7029351703528	0.000420653875123107
261.5310364	5.421467245618817	2.352155713024843e-05	94.6592522803238	0.000410688271190338
262.0065613	5.371729054592782	2.3080209155057524e-05	93.7908194817848	0.000402982300198672
262.5119629	5.364963068924124	2.525589664984615e-05	93.67268483016402	0.000440969978095052
263.0361938	5.338474519762431	2.1819871931609084e-05	93.2101926404966	0.00038097671134464003
263.511322	5.329756261486088	2.7174399990974297e-05	93.0579711528002	0.00047446720007223
264.0134277	5.309077112264765	2.7049359153030322e-05	92.6969115513306	0.00047228397702798
264.539978	5.288371793610587	2.183932299880829e-05	92.33539502946759	0.000381316328535654
265.0136414	5.27706509193526	2.2086600172370252e-05	92.1379791127325	0.00038563380778894703
265.5006409	5.266042204544403	2.3690295340592655e-05	91.94551861613319	0.000413634453856149
266.0339661	5.204318906319321	2.027718348776178e-05	90.8678248860856	0.000354041247570679
266.5079651	5.2179751591227905	1.8851335743101204e-05	91.1062641536791	0.00032914583176156797
267.0181122	5.199367185655312	2.57891290495618e-05	90.7813674467393	0.000450280258497376
267.526947	5.155276586505812	2.499308844884141e-05	90.0115420546453	0.000436381325858824
268.0172729	5.178891440272859	2.4598000006955303e-05	90.4238592925857	0.0004294830500233
268.5027771	5.137353513539683	1.9345528089597312e-05	89.6986037653085	0.000337774469708202
269.0459595	5.120654794010266	2.119384212123606e-05	89.4070427850276	0.00037004618072066696
269.525116	5.080463722068499	2.3561410568109333e-05	88.7053034502697	0.000411384115407005
270.7442017	5.0533745092991005	2.456690630198828e-05	88.2323236259083	0.000428940151444473
271.0414734	5.0530821314837135	2.3708050874434464e-05	88.2272186858369	0.000413944466898958
271.5193787	5.015176130969688	2.5004209365415094e-05	87.5653768812046	0.000436575497952806
272.0153809	5.017376060196368	2.2781749443305494e-05	87.6037878216812	0.000397771169729687
272.505249	4.986263389367629	2.1755169751169045e-05	87.0605580973898	0.000379847006092559
273.0605774	4.981090082478819	2.134968927470618e-05	86.97023174481299	0.000372767284501091
273.541626	4.949343627489711	2.175563762450833e-05	86.4159360983257	0.000379855175198532
274.038147	4.932592325590838	2.8126293778388855e-05	86.1234570256631	0.0004910873418317811
274.5098877	4.928047297456813	2.3883620555308567e-05	86.0441004704598	0.000417009927587311
275.0140076	4.90691693627305	2.3845608340080533e-05	85.6751626719912	0.000416346231265266
275.5448608	4.908214397672318	2.3519587397921552e-05	85.69781645192809	0.00041065387950616703
276.0558624	4.887691006637542	2.3260275045089102e-05	85.3394764008693	0.00040612626505898803
276.5046692	4.8918036302766765	2.427653101929163e-05	85.41128313896321	0.000423870175754227
277.0510864	4.8053014854658676	2.3769496563056938e-05	83.9009487631441	0.000415017313543112
277.5303345	4.829494113719794	2.314030592295152e-05	84.32335398989579	0.00040403159457888
278.026947	4.8146194616686655	2.3381307786683684e-05	84.0636413738641	0.000408239506419994
278.5066833	4.773648899811278	2.056068694142185e-05	83.34829208275491	0.000358991240575624
279.0588989	4.762658137147209	2.0462920239094373e-05	83.15639248645799	0.000357284226123455
279.5420532	4.759738664807394	2.290226152369026e-05	83.10541826560231	0.000399875320304273
280.0252991	4.713203238757656	2.9214568920781e-05	82.29290600003911	0.000510088712971181
281.0885925	4.676468474547583	2.2247641451089198e-05	81.6515140750709	0.000388445601412181
281.5098877	4.669233546976154	2.5840843133671566e-05	81.52519166027311	0.000451183190547394
282.0144043	4.664740845253448	2.179264468574705e-05	81.44674872840191	0.000380501321451427
282.52119445	4.67029120449181	2.65383015391104e-05	81.5436584451977	0.000463360870161491
283.0345154	4.644242514551761	2.2194098694470102e-05	81.0888462327658	0.000387510740593703
283.5262451	4.616289044280664	2.747695629731969e-05	80.6007764032117	0.000479749857410886
284.0193481	4.574613018649383	2.5241473155000766e-05	79.8731096581141	0.000440718142719963
284.54798885	4.577165373459971	2.5142153116503933e-05	79.91767397750931	0.00043898400689388
285.0157471	4.571322599438395	2.7118221855941523e-05	79.81565867518091	0.000473486325335598
285.5228271	4.5827114091191845	2.785037655387562e-05	80.0145082042669	0.00048626980499527406
286.0079651	4.532305576447394	2.631243894067954e-05	79.1344183291257	0.00045941729110494803
286.5558472	4.516941671627539	2.3324203239024713e-05	78.86616332057079	0.00040724245644471795
287.0544739	4.506197484272229	2.9038749894987563e-05	78.67856894891149	0.000507018898700568
287.545166	4.478546726823039	2.6320312158171902e-05	78.1957845094703	0.000459554758112882
288.0447693	4.469462741535494	2.547468397415003e-05	78.0371773988695	0.00044479002229872296
288.537323	4.444920971424661	2.2539293457492382e-05	77.6086761273356	0.000393537868800588
289.0107117	4.430505999034666	2.3022239312947416e-05	77.3569895550002	0.000401970142112983
289.5454102	4.427853293395537	1.6119150930285454e-05	77.3106731021022	0.000281441666126002
290.0259399	4.3979538520152985	2.309851521553666e-05	76.78862646114169	0.000403301925480657
290.5050964	4.409426446901758	2.0448617712353536e-05	76.98893888662852	0.000357034502861159
291.5572815	4.348360550353962	2.2543079738443076e-05	75.9227234425136	0.00039360397756920697
292.0016479	4.334931793996519	3.0744679722881946e-05	75.68825628108651	0.000536804570112985
292.5358887	4.357422519235685	2.1213569911370553e-05	76.0809461449056	0.000370390629516292
293.0166931	4.294605677384386	2.3115306947039636e-05	74.9841590555691	0.000403595110457445
293.5445251	4.317435404156169	2.647888459241574e-05	75.3827679132962	0.00046232344551386603
294.0288696	4.271616424844254	1.834357834376331e-05	74.58276486515119	0.000320280346905975
294.5241394	4.244197474274339	2.3803571158154144e-05	74.1040277923861	0.00041561225870233304
295.0172424	4.225930347639213	2.213417147816023e-05	73.7850822984355	0.00038646440659773204
295.5057068	4.218012798858232	2.6048450357502723e-05	73.64684126265199	0.000454808029301466
296.0111084	4.224583717560548	2.4286341390476738e-05	73.7615700294187	0.000424041465620771
296.5491943	4.184372380943075	2.6807544294381477e-05	73.0594768718001	0.000468061870230513
297.0256653	4.166985995800382	2.3657350379408085e-05	72.7559091948405	0.000413059232195508
297.5589294	4.174104264825062	2.1874484966261567e-05	72.8801947420696	0.000381930259303293
298.0016174	4.189737424681357	2.4162871711379363e-05	73.1531509651237	0.000421885675135807
298.529541	4.0921102736143125	2.080233378967184e-05	71.4485730891377	0.00036321041389807205
299.030304	4.14206456444892	2.0000561314690012e-05	72.3207790076405	0.00034921140227588495
299.5076904	4.146794338544075	2.9044041098655558e-05	72.4033612421203	0.000507111283540351
300.0357666	4.11985699019399	2.0060299114571495e-05	71.933032982682	0.000350254429045847
300.5068359	4.100876560221693	2.862168889773435e-05	71.6016331553403	0.0004997369802886881
301.02713015	4.040961299551102	2.7977168033274855e-05	70.5555079057887	0.000488483594379531
301.91374205	4.04486132330569	2.1977867297594717e-05	70.6236026328726	0.000383735323087622
302.0419006	4.065783282660932	2.1444310915265593e-05	70.9889017187256	0.000374419385922921
302.5334167	3.9992472119911864	2.378578232031967e-05	69.827176596369	0.000415301664169145
303.0184631	4.035924233968884	2.2991943436793214e-05	70.4675603373357	0.000401441173689121
303.5033264	3.9855891018137104	2.42569928422619e-05	69.5887048988766	0.00042352903761859597
304.042572	4.012761164543822	2.4324890694861866e-05	70.063131290187	0.00042471453956251096
304.5187683	3.9883365987581856	3.016359850962053e-05	69.63667641555719	0.0005266588455942361
305.0221558	3.9893865676546505	2.46017002319573e-05	69.65500895657499	0.00042954765624816303
305.5074158	3.9460641464250106	2.3067419836532013e-05	68.8985960124804	0.00040275899767299903
306.057312	3.935838064506542	2.5575334202814353e-05	68.7200478032402	0.00044654738335165705
306.5436401	3.9186130038871134	2.3814698730453254e-05	68.4192968653763	0.000415806547005814
307.0365295	3.9128486965716016	2.3207577820887444e-05	68.3186515980197	0.00040520616730423196
307.5053711	3.89385269701936	2.109522072822175e-05	67.9869799245653	0.000368324243300659
308.0534363	3.909343371588338	2.751378185236372e-05	68.2574483430921	0.000480392834551086
308.5565796	3.875864432746448	2.1827157536694986e-05	67.6729033897913	0.000381103918592899
309.0071106	3.8510203547060944	2.1843954516412034e-05	67.239123797598	0.00038139719520392497
309.5391235	3.871380139150759	2.6259068941643942e-05	67.5946072644912	0.00045848544664771297
310.0141907	3.8596998306114205	1.881300504914436e-05	67.3906681419906	0.000328476574775413
310.5579834	3.8328947819603294	2.353163692383065e-05	66.9226498458918	0.000410864265193512
311.0522156	3.8072441432648074	2.8375182512042912e-05	66.4747876400668	0.000495432959053342
311.5	3.7838575531171865	2.580184938586288e-05	66.0664559032018	0.000450502356587886
312.3224792	3.7752621049895483	2.1741822064542626e-05	65.9163786905369	0.000379613954415128
312.507782	3.762617522378529	2.4468902552387584e-05	65.695603265522	0.00042722899812793
313.0090027	3.74869741023287	2.734398238042882e-05	65.452556992683	0.00047742812217291193
313.547821	3.74848666363843	2.7653890412505122e-05	65.44887734026669	0.0004828391412315839
314.0233765	3.6899780814159504	2.6893425979296106e-05	64.4273128090713	0.000469561371326856
314.53889465	3.7158693150393733	2.5234117134249063e-05	64.87937582160521	0.00044058970600854
315.0109253	3.7230530691892763	2.7253099241157353e-05	65.004804744365	0.00047584129528296297
315.5031738	3.6996537775651466	2.8212393466977956e-05	64.59625123870299	0.0004925906492897389
316.056488	3.691538080453987	2.4856164322256327e-05	64.4545505172061	0.000433990619643241
316.5280457	3.677540200650426	2.775607415355418e-05	64.21014641483221	0.00048462327753356503
317.0202942	3.663284555523745	2.183833099855395e-05	63.96124170927381	0.00038129900813177003
317.5155945	3.6152734391575994	2.6870313922611503e-05	63.12296377260719	0.000469157832966241
318.0556641	3.5877328075741604	2.959853214453206e-05	62.642102139601306	0.000516792741607117
318.5382996	3.601001641729392	2.4848123636324702e-05	62.8737770465706	0.000433850228622946
319.0259705	3.628751041336505	2.0175439263683793e-05	63.35828378598879	0.00035226478527021097
319.5018616	3.5798782862335807	2.690409462438231e-05	62.50496156797469	0.000469747646724447
320.0020142	3.599368128861738	2.7760533026575794e-05	62.84525578108341	0.000484701129813606
320.5367126	3.5642700918747643	2.6871263863548565e-05	62.23244124450589	0.000469174419011077
321.0082703	3.5349259743517516	2.9550966001162555e-05	61.720090602565	0.000515962232934607
321.5380859	3.5437151272120118	3.0136082509492254e-05	61.8735499153741	0.00052617841402841
322.7105713	3.5007781781149783	2.5170118544058096e-05	61.1238673455849	0.000439472285498554
323.0420837	3.485760042618369	2.67595789170534e-05	60.8616494971044	0.000467224390901114
323.5180664	3.4599548212756632	2.1739418975232237e-05	60.411088265880004	0.00037957199628332005
324.0063477	3.4888199822968935	2.6667932600192883e-05	60.915076288943105	0.00046562423886934204
324.529541	3.483546211529065	2.1515623281802943e-05	60.8229958289931	0.00037566450555363
325.0112	3.465542174874476	2.7117271050072975e-05	60.5086439071719	0.000473469724188989
325.5531311	3.426632229672255	3.078906518164093e-05	59.829273147883995	0.0005375795437774741
326.0367432	3.4023910244798827	2.145428944852017e-05	59.4060197638968	0.000374593611912665
326.519043	3.444371841821835	2.2802337390455576e-05	60.139008196671604	0.000398130636935689
327.0079041	3.407719312193763	2.688557064752371e-05	59.4990520940908	0.000469424216605025
327.5672302	3.383176764023521	2.5971331853795023e-05	59.070537237577305	0.00045346153405078504
328.0262451	3.372296192526525	2.322039570591567e-05	58.880561587882	0.00040542996860333004
328.561554	3.3758954584801173	2.3518366729981446e-05	58.9434050596747	0.000410632566546177
329.0508423	3.357726756491503	2.4691565223269154e-05	58.6261780679344	0.0004311167061932
329.5279236	3.3708701938202665	2.584717382967189e-05	58.8556635362713	0.000451293725006546
330.0064697	3.3472794957287073	2.459486709294154e-05	58.4437680583594	0.00042942834909372396
330.5020142	3.3180147037242684	2.8243712132279653e-05	57.9328024463255	0.000493137475694025
331.0530701	3.3335335063196734	2.7969095882042197e-05	58.2037619824463	0.00048834265397256
331.5480347	3.283635644380836	1.9254175680078702e-05	57.3325413169827	0.000336179449322157
332.027832	3.2840494842557573	3.088666955072558e-05	57.3397669943407	0.000539283723878223
333.1402893	3.2943763733244658	2.8091228720021434e-05	57.5200753044971	0.000490475103104542
333.5267029	3.271404799341267	2.5824546563694567e-05	57.118989783098996	0.000450898651130504
334.0422058	3.2441092166100183	2.5454561487274356e-05	56.6424067226768	0.00044443868206638803
334.5082397	3.2521822176727055	2.5794820796800757e-05	56.7833619677481	0.00045037963685998504
335.0350952	3.2705661187615047	2.8674977737535775e-05	57.1043463530116	0.0005006674076991949
335.5340881	3.1899025773655714	2.6739152535736255e-05	55.6959544603939	0.000466867744647494
336.0178528	3.17280767133587	3.3463176578415336e-05	55.3974760320899	0.000584269742918217
336.5602417	3.1693889296989055	2.2843854761862237e-05	55.3377845293226	0.00039885553356531903
337.013092	3.181552989345212	2.527127987234734e-05	55.5501699848915	0.00044123857039187
337.5544128	3.18269284798391	2.7530354229500928e-05	55.5700720080074	0.00048068218958308097
338.0334167	3.171850951474661	2.704966477610647e-05	55.3807716266954	0.000472289313231365
338.5252686	3.1537188061550676	2.433091903684287e-05	55.0641829173238	0.00042481979489627196
339.0145569	3.1539957650915724	2.4025350367165383e-05	55.0690186425351	0.000419484541452596
339.5064392	3.132089024905701	2.5061559646200106e-05	54.686525204514304	0.000437576838448142
340.0015869	3.1554013852414444	2.1918408106204815e-05	55.0935608829193	0.000382697160844235
340.559906	3.0965586770142446	2.6776852712099247e-05	54.0661624849234	0.000467525992745966
341.0298462	3.097449309564069	2.7793771352845085e-05	54.0817130005686	0.00048528147365212
341.5164185	3.1067265055491315	2.6775746498080853e-05	54.243693585421106	0.00046750667816061503
342.04016115	3.0761046575499695	2.7963846448020246e-05	53.709033667041105	0.000488250998434142
342.5465698	3.1029841779114102	2.993602028469178e-05	54.17835224516659	0.000522685311561646
343.5325928	3.059368757594124	2.4465610561853402e-05	53.4168235135372	0.00042717151970956803
344.0570679	3.0668259174494636	2.6101972042370013e-05	53.547026121809296	0.00045574252220547
344.5513	3.0421357606344763	3.304154768457464e-05	53.11593400653749	0.000576908068666105
345.0252686	3.040746820829638	3.0440341829352377e-05	53.0916830063134	0.000531490806119417
345.5266418	3.040047872508753	2.5469613922490132e-05	53.079479312656304	0.000444701498790712
346.0127563	2.95872961625527	2.3996316748714014e-05	51.6596560461937	0.000418977612149312
346.5446167	2.9586645594971706	2.4312485335900616e-05	51.6585201499873	0.000424497941001579
347.0364685	2.9722194049321113	2.553226943838943e-05	51.8951888368052	0.00044579546911600697
347.5141602	2.97138440949547	2.801941149488689e-05	51.88060974961181	0.000489221168602295
348.0023499	2.931924440771215	3.2099894597219164e-05	51.1916355355812	0.0005604667303497
348.5420227	2.9405159790023134	2.5855857225610864e-05	51.3416444811394	0.00045144533779504
349.0045166	2.933832042702804	2.5971616692487975e-05	51.2249424180748	0.00045346650735717496
349.5001831	2.884248521662763	2.9597205131667354e-05	50.3592101698778	0.000516769571856227
349.7745361	2.9395360661275127	2.493672643218807e-05	51.324535123870206	0.000435397240534371
