#Data reduced with Dominiques SARed v. 1.0
#wavelength: 5.1386
#q/A-1 	 Icorr/a.u. 	 sIcorr /a.u. 	Ispec/a.u. 	 sIspec/a.u. 	 Ibg/a.u. 	 sIbg/a.u. 	 2th/°
0.0	0.004045739345633383	0.0004985385511526942	0.005544974173657441	0.00018579645288321003	0.001499234828024059	0.00046262335120640484	0.0
0.00034145415721603483	0.0135787183194526	0.0014236116223951504	0.019155382067847414	0.0003453091681005884	0.005576663748394815	0.001381097979813247	0.016000000000000014
0.000682908307775245	0.01828264241841919	0.0020998333292977216	0.026725482720885242	0.00040745256869064437	0.008442840302466054	0.002059922914843405	0.03200000000000003
0.0010243624450208065	0.014203509486819576	0.00189555887913947	0.02186110377320269	0.0003677867982869687	0.007657594286383114	0.0018595365915437924	0.04800000000000004
0.0013658165622958943	0.00945558151425511	0.0012836024901111535	0.01456818413103029	0.00029951869999680556	0.00511260261677518	0.0012481682182189137	0.06400000000000006
0.0017072706529436851	0.008548488407100506	0.0007231626162730544	0.011290402361626827	0.00026295022248249247	0.002741913954526322	0.0006736626381738092	0.08000000000000007
0.002048724710307356	0.011348512734982935	0.00042844546896629403	0.012699841702601739	0.00027823417933139444	0.0013513289676188036	0.00032580862684946363	0.09600000000000009
0.002390178727730083	0.01687386389893358	0.000375653430375024	0.017637142132127664	0.0003272724130535444	0.0007632782331940847	0.00018441330593705336	0.1120000000000001
0.002731632698555046	0.023416401405404505	0.00041681869548776884	0.024075162068660234	0.0003816091659051592	0.0006587606632557296	0.00016766713871624946	0.1280000000000001
0.003073086616125423	0.028958661078466594	0.000466963023837745	0.02976228188847292	0.00042335701527754547	0.0008036208100063223	0.00019703629931304176	0.14400000000000013
0.0034145404737843947	0.033145889691415194	0.0005176692587555006	0.03423650795244787	0.00045304640922774774	0.0010906182610326777	0.00025046040115418174	0.16000000000000014
0.0037559942648751404	0.036579864566196406	0.000572579576579168	0.03801729768570687	0.0004763259967101791	0.0014374331195104676	0.00031774347573732133	0.17600000000000016
0.004097447982740846	0.04004453410922491	0.0006389213440373854	0.041892852820887366	0.0004988879049476178	0.0018483187116624619	0.0003991633026262755	0.19200000000000017
0.0044389016207246924	0.04349652507596255	0.0007052893930875877	0.04575626197357753	0.0005202058570527412	0.002259736897614981	0.0004762551777040127	0.20800000000000018
0.004780355172169867	0.046404659088334924	0.0007598201314919367	0.049010466601169714	0.0005371356772713333	0.0026058075128347893	0.000537412222062999	0.2240000000000002
0.005121808630419555	0.04891143102604876	0.0008231744214068062	0.05197604663959539	0.0005519157816497308	0.0030646156135466307	0.0006107414330339779	0.2400000000000002
0.005463261988816949	0.050928645043199085	0.000920246734024439	0.054617931905868077	0.0005645267200472461	0.0036892868626689944	0.0007267486730881211	0.2560000000000002
0.005804715240705238	0.05349953758285332	0.0009982172213628103	0.05769060836565691	0.0005788972073410395	0.00419107078280359	0.0008132131604678048	0.27200000000000024
0.006146168379427613	0.056336914289332844	0.0010694699801762043	0.060983694491467746	0.0005938372528482527	0.0046467802021349005	0.0008894511541550392	0.28800000000000026
0.006487621398327273	0.05920593573828233	0.0011545062284633392	0.06435112985939734	0.000608571006240758	0.005145194121115006	0.0009810840748497322	0.30400000000000027
0.006829074290747414	0.06136313503399526	0.0012211077704176302	0.06697920778178221	0.0006193937018777265	0.005616072747786951	0.0010523571775060605	0.3200000000000003
0.007170527050031234	0.06356122616527501	0.0012940082006038006	0.06959052235231394	0.0006298609880401192	0.006029296187038933	0.0011303682404309717	0.3360000000000003
0.007511979669521937	0.06733191456291517	0.0013384134818739944	0.07360918364520472	0.0006463195420822795	0.006277269082289555	0.001172016082647598	0.3520000000000003
0.00785343214256273	0.07038377457870938	0.0013922083800333564	0.07703139399286366	0.0006596431464676063	0.0066476194141542756	0.0012260159431073557	0.3680000000000003
0.008194884462496822	0.07258824628477901	0.0014732865572263617	0.07975919283391486	0.0006695468221523708	0.007170946549135842	0.0013123567855768366	0.38400000000000034
0.00853633662266742	0.07442543064477268	0.001519048099322337	0.0818957159107219	0.0006767028470416098	0.00747028526594922	0.0013599927885325658	0.40000000000000036
0.008877788616417743	0.07560517850592101	0.0015769106999940687	0.08343130798977702	0.0006813072505009659	0.007826129483856008	0.0014221349395084132	0.41600000000000037
0.009219240437091004	0.07688570181344087	0.0016439934092499452	0.08515651172690786	0.0006867436657591688	0.008270809913466983	0.001493685866304196	0.4320000000000004
0.009560692078030425	0.07624277745209448	0.0017232745415237595	0.08507440165069775	0.0006848826741559303	0.008831624198603276	0.0015813319917414386	0.4480000000000004
0.009902143532579236	0.0725025607763425	0.001816063530024658	0.08190645908568103	0.0006705083259854771	0.009403898309338535	0.0016877515604702532	0.4640000000000004
0.010243594794080657	0.06687274768843206	0.0018439093904031973	0.0764922955982478	0.0006464696008756769	0.009619547909815743	0.001726869681001069	0.4800000000000004
0.010585045855877929	0.06071898274208139	0.0018960829499482074	0.07073726812582737	0.0006201507780408699	0.010018285383745981	0.0017917989746563648	0.49600000000000044
0.010926496711314277	0.056946232283346714	0.001984840575351173	0.0675637472649997	0.000604581074361293	0.010617514981652984	0.0018905221062141852	0.5120000000000005
0.011267947353732948	0.0574396095187014	0.0020888909329227928	0.06863658018770753	0.0006077668695337031	0.011196970669006137	0.001998520643362049	0.5280000000000005
0.011609397776477185	0.06338959221843503	0.002195199214769018	0.07507324794679057	0.0006338951870218663	0.011683655728355547	0.002101684201870735	0.5440000000000005
0.011950847972890236	0.07519869191626223	0.0023000837775811723	0.08735381420094368	0.0006820473292011699	0.012155122284681455	0.0021966330655395377	0.5600000000000005
0.01229229793631535	0.09018909314077077	0.0025067120685097173	0.10329323805629362	0.0007399743566279742	0.013104144915522854	0.0023950038300481445	0.5760000000000005
0.012633747660095791	0.1070263455861561	0.0027339619398633434	0.1210920300142267	0.000799573683794474	0.014065684428070607	0.0026144272437389933	0.5920000000000005
0.012975197137574815	0.1216582030127375	0.00299354585313545	0.1368385620376555	0.0008482798952161463	0.015180359024917985	0.0028708427324039424	0.6080000000000005
0.01331664636209569	0.1290441512765531	0.0032410419102560507	0.14549511694036588	0.0008728744080910948	0.016450965663812777	0.003121288665236814	0.6240000000000006
0.013658095327001692	0.1269219417960082	0.0033271837662695656	0.14406794175695758	0.0008667712742604922	0.0171459999609494	0.0032122981450426694	0.6400000000000006
0.013999544025636088	0.11460501499221265	0.0032172048037636372	0.13154604822625002	0.0008266270654310277	0.016941033234037374	0.0031091951440938392	0.6560000000000006
0.01434099245134217	0.09787788952620793	0.002766706666537881	0.11280423119143321	0.0007640680627433756	0.014926341665225266	0.002659109959020262	0.6720000000000006
0.01468244059746322	0.07808451160075625	0.0022116892733791884	0.09007273145703815	0.0006815146003962427	0.011988219856281904	0.0021040692221092235	0.6880000000000006
0.015023888457342531	0.058078104198498515	0.0017433706929515117	0.06742945000360537	0.0005885808647039633	0.00935134580510685	0.0016410100361504707	0.7040000000000006
0.015365336024323401	0.04223905398101056	0.001347045171417164	0.049354366611397235	0.0005025806168375846	0.007115312630386673	0.0012497773471372609	0.7200000000000006
0.015706783291749137	0.02961719988287731	0.001092719229949057	0.035332708761938524	0.00042431842443963364	0.005715508879061212	0.0010069703025320693	0.7360000000000007
0.016048230252963046	0.021151788096489488	0.0009023136857510366	0.025843750086159287	0.0003620019543236899	0.004691961989669801	0.0008265135041603674	0.7520000000000007
0.016389676901308443	0.015649151384471205	0.0007485969050256693	0.019505863834680358	0.0003137625926122671	0.003856712450209152	0.0006796693031844527	0.7680000000000007
0.01673112323012865	0.011861121723369918	0.0006455685472339934	0.015189151749119247	0.00027623859208401506	0.00332803002574933	0.0005834817815675566	0.7840000000000007
0.017072569232766996	0.009503014868462691	0.000582117879858095	0.012489685856756371	0.00024988793060379136	0.0029866709882936807	0.0005257539806687518	0.8000000000000007
0.017414014902566815	0.007722578471530963	0.0005463989203548029	0.010538818692564816	0.0002290152922613528	0.002816240221033854	0.0004960884760557751	0.8160000000000007
0.017755460232871452	0.0065194897756923435	0.0005076790500634151	0.009148094762390615	0.00021292380134688876	0.0026286049866982714	0.0004608703426054688	0.8320000000000007
0.018096905217024246	0.00618648899379059	0.0004864897615824349	0.008703156273308595	0.00020724716130790722	0.002516667279518004	0.000440137367482413	0.8480000000000008
0.01843834984836856	0.006463320445992481	0.0005011653302282796	0.009048860062055663	0.00021085151753478338	0.002585539616063183	0.00045465187316902095	0.8640000000000008
0.018779794120247748	0.007871137803617588	0.000511468188140013	0.010489951950044731	0.00022644754513230207	0.002618814146427143	0.00045860791181877986	0.8800000000000008
0.01912123802600518	0.010323984155188537	0.0005292841600784275	0.013004114309037668	0.0002515325839929513	0.00268013015384913	0.00046569634022585507	0.8960000000000008
0.019462681558984233	0.013580144191338264	0.0005551682556285695	0.01633153633386739	0.00028132802386084664	0.002751392142529125	0.000478608749448043	0.9120000000000008
0.019804124712528293	0.017546547338290856	0.0005633757577385338	0.020230360966077606	0.00031255667208896214	0.0026838136277867507	0.0004687222750628991	0.9280000000000008
0.020145567479980742	0.020004637733152596	0.0005673283709545147	0.02264747467662472	0.0003301591271756152	0.0026428369434721233	0.0004613636648377713	0.9440000000000008
0.02048700985468498	0.0195230936521272	0.0005345271913923241	0.021954786282060774	0.00032457678197433005	0.0024316926299335732	0.00042469898862718586	0.9600000000000009
0.02082845182998442	0.01654457615101428	0.00047359080721146734	0.018633060469362427	0.0002985350567227431	0.002088484318348148	0.0003676480281230375	0.9760000000000009
0.02116989339922247	0.01263315471454782	0.00040681903394961536	0.014399542930687213	0.0002619877967264595	0.0017663882161393911	0.0003112300126114344	0.9920000000000009
0.021511334555742535	0.0091670225130227	0.000342824700988486	0.010639460250809807	0.00022480051669438226	0.0014724377377871073	0.0002588310323392147	1.008000000000001
0.02185277529288807	0.006474813843727168	0.0002953128478983895	0.007755692664000913	0.0001915869547903571	0.001280878820273745	0.000224731210311374	1.024000000000001
0.022194215604002494	0.004627970280697507	0.0002558265765744213	0.005737319847720149	0.00016443508976699534	0.0011093495670226414	0.00019598045447214484	1.040000000000001
0.02253565548242926	0.003582532365870546	0.00022263366725011345	0.004524214238690449	0.0001457059063612109	0.0009416818728199028	0.00016833163292944163	1.056000000000001
0.022877094921511826	0.0028803773561719894	0.0001944126755700246	0.003673170704581654	0.00013105044999146451	0.0007927933484096649	0.00014360385781492883	1.072000000000001
0.023218533914593643	0.002321810511494836	0.00017278695420939373	0.0030213850687756554	0.00011862167206059294	0.0006995745572808192	0.00012563530738812344	1.088000000000001
0.023559972455018188	0.002202112361389528	0.00016266904694619026	0.002845705626289036	0.0001148795607069694	0.0006435932648995077	0.000115169029544212	1.104000000000001
0.02390141053612894	0.0021461009618195357	0.00015829511264641824	0.002766805537015639	0.00011306431474513057	0.0006207045751961034	0.0001107871988045383	1.120000000000001
0.024242848151269387	0.0019772716300622798	0.00015672221463233053	0.0025969755910527836	0.00010932394418650642	0.0006197039609905038	0.00011229482528936009	1.136000000000001
0.024584285293783033	0.0019867222901275954	0.00015293336761557262	0.002573861013995764	0.000108585819638979	0.0005871387238681686	0.00010769277925455822	1.152000000000001
0.024925721957013376	0.0022378462359368308	0.000154646899550484	0.002812369895532833	0.00011326269432359565	0.0005745236595960023	0.00010529589552844509	1.168000000000001
0.02526715813430394	0.002649628174490964	0.0001652454062637624	0.0032627481569874823	0.0001217672185217372	0.0006131199824965184	0.00011170849916078627	1.184000000000001
0.025608593818998247	0.00343970209164175	0.00017728267155543825	0.004070246372547822	0.00013571447251219975	0.0006305442809060719	0.00011406457637921062	1.200000000000001
0.025950029004439837	0.004662004138619632	0.00019986532372279393	0.005344645770797103	0.0001551831785453126	0.0006826416321774701	0.00012595367689508254	1.216000000000001
0.026291463683972244	0.006153376761098685	0.00022523152968744004	0.006902304816838049	0.00017599967570172375	0.0007489280557393642	0.00014054663325114642	1.232000000000001
0.026632897850939034	0.008034867973947108	0.0002468896571614903	0.00883469214453361	0.00019871328682945222	0.0007998241705865027	0.0001465180277329519	1.248000000000001
0.02697433149868377	0.010078077798194725	0.0002694383233373511	0.010924246449927174	0.00022055405049990247	0.0008461686517324481	0.00015476731208795166	1.2640000000000011
0.027315764620550024	0.01151283499010232	0.0002844651514975368	0.012378456998890097	0.0002343809982888461	0.0008656220087877772	0.0001612016440909971	1.2800000000000011
0.02765719720988138	0.011857596690445272	0.00028432633340231455	0.01270467045340315	0.00023704982582340578	0.0008470737629578775	0.0001569995030027074	1.2960000000000012
0.027998629260021446	0.011280324002311895	0.00026566907840124216	0.012002400449247394	0.000230007326130158	0.0007220764469355	0.00013295371053498464	1.3120000000000012
0.02834006076431381	0.00973828578909065	0.0002394663630582215	0.010306361150152755	0.00021278436883415925	0.000568075361062105	0.00010984967645004893	1.3280000000000012
0.028681491716102115	0.007623749214373535	0.0002072929451342317	0.008070034655602043	0.00018799563297863648	0.0004462854412285083	8.733846279495314e-05	1.3440000000000012
0.02902292210872996	0.005793913262343916	0.0001773032942201584	0.006147417683157514	0.00016381192325814277	0.00035350442081359803	6.783886747129848e-05	1.3600000000000012
0.029364351935540996	0.004389156123019255	0.00015575924716008225	0.004710145545257493	0.00014313647210063447	0.0003209894222382372	6.142388322517455e-05	1.3760000000000012
0.02970578118987888	0.003271085261236547	0.00013637183560560794	0.0035727935437454275	0.00012444072014645275	0.0003017082825088803	5.5783373113098785e-05	1.3920000000000012
0.03004720986508726	0.0025737493742263385	0.00012075308298016624	0.002832444617151927	0.00011057133193276713	0.00025869524292558885	4.853130540000696e-05	1.4080000000000013
0.030388637954509818	0.002191267849603882	0.00011013586590779916	0.0024105272586614985	0.00010178897110254005	0.00021925940905761666	4.205846313344061e-05	1.4240000000000013
0.03073006545149023	0.0019222310153223288	0.0001034398418020514	0.0021283944472686293	9.5474100511328e-05	0.00020616343194630046	3.980574083704837e-05	1.4400000000000013
0.0310714923493722	0.0017535268894595358	9.922753991441625e-05	0.0019593313717466117	9.147150426055454e-05	0.00020580448228707594	3.845866073823193e-05	1.4560000000000013
0.03141291864149943	0.0017093648033223423	9.92293991553617e-05	0.0019249801856301239	9.050260710274779e-05	0.00021561538230778157	4.069092975516488e-05	1.4720000000000013
0.03175434432121564	0.0017121484313356757	9.884949572711328e-05	0.0019259367573951451	9.03375550114021e-05	0.00021378832605946948	4.012915349302158e-05	1.4880000000000013
0.03209576938186455	0.0016187052839853097	9.750392917660154e-05	0.0018420840762887025	8.81856522943397e-05	0.00022337879230339286	4.1596958233716394e-05	1.5040000000000013
0.03243719381678992	0.0015630183661918433	9.89209558678826e-05	0.0018174661114286894	8.742707423505953e-05	0.0002544477452368461	4.6280257135337624e-05	1.5200000000000014
0.032778617619335496	0.0017191554447044638	0.0001038034920295182	0.001986641792591066	9.120482465168018e-05	0.00026748634788660217	4.9566570567051755e-05	1.5360000000000014
0.03312004078284504	0.002006654973267613	0.00011360308330435975	0.00231071959028032	9.815704460569033e-05	0.000304064617012707	5.719139035321505e-05	1.5520000000000014
0.033461463300662346	0.00239905846985953	0.00012571276009199872	0.002754717206341869	0.00010695142562341048	0.000355658736482339	6.606883234225137e-05	1.5680000000000014
0.03380288516613119	0.0030211258877253077	0.0001380978845144712	0.00340196879377458	0.00011864110212104189	0.0003808429060492722	7.067753953609825e-05	1.5840000000000014
0.03414430637259539	0.003958275539262285	0.00015404370268187886	0.004364613509401366	0.00013414142951685056	0.0004063379701390815	7.573334287563774e-05	1.6000000000000014
0.03448572691339876	0.0052322099532720965	0.00017372317811765358	0.0056728587186681825	0.00015263970141377996	0.00044064876539608616	8.295097448258273e-05	1.6160000000000014
0.03482714678188512	0.0065859503478702276	0.00019361783815027045	0.007073006764518723	0.00017012395101562356	0.0004870564166484958	9.244300157836738e-05	1.6320000000000014
0.035168565971398336	0.007792132773284465	0.0002078769148467632	0.00830098279527849	0.00018398956086455601	0.0005088500219940255	9.675046883129958e-05	1.6480000000000015
0.035509984475282245	0.008688288318168952	0.00021325530788068208	0.009163234022114016	0.00019302216010068802	0.0004749457039450653	9.066571595343449e-05	1.6640000000000015
0.035851402286880725	0.00895769532190165	0.00021382408357586866	0.009411902720406267	0.0001953594932546041	0.0004542073985046183	8.692184485136258e-05	1.6800000000000015
0.03619281939953766	0.008702523750610579	0.00020901243703521174	0.00912752593514038	0.00019213644940856126	0.0004250021845298003	8.227869495847472e-05	1.6960000000000015
0.036534235806596954	0.007682965717171818	0.00019214817430656232	0.008038787199336189	0.00018006867134613303	0.00035582148216437037	6.705366872128165e-05	1.7120000000000015
0.036875651501402505	0.006307573368098255	0.00017096185239685847	0.006594047678565946	0.00016285005245244728	0.0002864743104676903	5.203667352166541e-05	1.7280000000000015
0.03721706647729824	0.005085196884768791	0.00015288327971834913	0.005329119756065258	0.00014616654028453904	0.0002439228712964673	4.481785044697267e-05	1.7440000000000015
0.037558480727628116	0.0038703676736826574	0.0001345254020413104	0.0040948496241394955	0.00012792092109242912	0.00022448195045683832	4.1633180772560745e-05	1.7600000000000016
0.03789989424573607	0.002953713416588625	0.00011777895659493432	0.0031442058159922735	0.00011191400544876184	0.0001904923994036487	3.670337860478146e-05	1.7760000000000016
0.038241307024966066	0.0023894429855328574	0.00010453162444358482	0.002534238737288732	0.00010030503356616219	0.0001447957517558746	2.9423812637143696e-05	1.7920000000000016
0.038582719058662104	0.001968269898870914	9.379945782541987e-05	0.0020878827004443983	9.088050039287244e-05	0.00011961280157348449	2.3217944282038238e-05	1.8080000000000016
0.03892413034016816	0.0015612988008254557	8.4222546437514e-05	0.0016755667262416574	8.127360732062595e-05	0.00011426792541620177	2.209158395208227e-05	1.8240000000000016
0.03926554086282827	0.0013256549770297838	7.78145521300325e-05	0.001432994847998173	7.504895627790992e-05	0.0001073398709683891	2.0561096390852092e-05	1.8400000000000016
0.03960695061998643	0.0011623624224728429	7.266036845410844e-05	0.0012611851714191121	7.029760512286437e-05	9.88227489462694e-05	1.837867943777869e-05	1.8560000000000016
