#Data reduced with Dominiques SARed v. 1.0
#wavelength: 5.1386
#q/A-1 	 Icorr/a.u. 	 sIcorr /a.u. 	Ispec/a.u. 	 sIspec/a.u. 	 Ibg/a.u. 	 sIbg/a.u. 	 2th/°
0.0	0.0036982701382046322	0.00046210880404437484	0.005078249080516481	0.00017778406882446862	0.0013799789423118484	0.0004265411722771192	0.0
0.00034145415721603483	0.011157158767082625	0.0012808707363949363	0.016181607750216872	0.0003170953509574621	0.005024448983134247	0.0012409997509081419	0.016000000000000014
0.000682908307775245	0.014082698435773913	0.0019258030314737902	0.02183432549740739	0.00036777805811069917	0.007751627061633478	0.001890358859054535	0.03200000000000003
0.0010243624450208065	0.010483201174514265	0.0018061672121870219	0.0177658085749966	0.0003310644459429179	0.007282607400482336	0.0017755664817212414	0.04800000000000004
0.0013658165622958943	0.006992715200732157	0.0012316038278580696	0.011920739062290391	0.000270582229362888	0.004928023861558235	0.0012015128987853852	0.06400000000000006
0.0017072706529436851	0.006688705764415255	0.0006877576601842645	0.009325169873557367	0.00023868155076860444	0.0026364641091421114	0.0006450129583696968	0.08000000000000007
0.002048724710307356	0.009692239820450033	0.00041486715610693464	0.011018766914437145	0.00025893092678172335	0.0013265270939871116	0.0003241443079435662	0.09600000000000009
0.002390178727730083	0.015743288196538835	0.000372120036479395	0.0165188326787147	0.0003165107479349439	0.0007755444821758639	0.0001956892127611757	0.1120000000000001
0.002731632698555046	0.02227790958898464	0.00041649070376863727	0.022989309027739956	0.0003727373420593341	0.000711399438755314	0.0001858262095621544	0.1280000000000001
0.003073086616125423	0.028306804122420974	0.0004682754337739276	0.029151973276350093	0.00041890411478253	0.0008451691539291176	0.00020928742077445792	0.14400000000000013
0.0034145404737843947	0.03258769377115082	0.0005141431412859603	0.03365692447104398	0.00044906784255735824	0.0010692306998931595	0.0002503622226141048	0.16000000000000014
0.0037559942648751404	0.035276145724495354	0.0005718147850477875	0.036714362072309985	0.000467855953136827	0.0014382163478146293	0.0003287597230709362	0.17600000000000016
0.004097447982740846	0.03850357355198013	0.0006409133468528737	0.0403744408634374	0.0004893498891383889	0.0018708673114572714	0.0004138920199452974	0.19200000000000017
0.0044389016207246924	0.042028926412235594	0.0007065996194932534	0.04433298504641048	0.0005114749389958082	0.002304058634174882	0.00048752067550745436	0.20800000000000018
0.004780355172169867	0.045298107804469745	0.0007783765016638714	0.04806837748810612	0.0005312479215997498	0.0027702696836363755	0.0005688986062018721	0.2240000000000002
0.005121808630419555	0.047887785613287596	0.0008499932926815352	0.05114455481276178	0.0005465871672430794	0.003256769199474184	0.0006509462851947032	0.2400000000000002
0.005463261988816949	0.049735879501294926	0.0009455167658252441	0.053633295921775674	0.00055826557829006	0.003897416420480748	0.0007631130313086616	0.2560000000000002
0.005804715240705238	0.05267286135063112	0.0010253344395603297	0.057077743998681915	0.0005743796937137731	0.004404882648050793	0.0008493519178748981	0.27200000000000024
0.006146168379427613	0.05524859646385896	0.001093181512570712	0.06010402706326465	0.0005878911631825647	0.004855430599405684	0.0009216451593092869	0.28800000000000026
0.006487621398327273	0.0571505479631858	0.0011781190193558323	0.06254350165243322	0.0005982039428897398	0.005392953689247421	0.0010149465338031936	0.30400000000000027
0.006829074290747414	0.06037526985079311	0.001249726107220072	0.06620273889651038	0.0006138940469459054	0.0058274690457172686	0.0010885538306357723	0.3200000000000003
0.007170527050031234	0.06303201161695934	0.001327440325302379	0.06933407629405286	0.0006266773888490018	0.0063020646770935145	0.0011702022336093376	0.3360000000000003
0.007511979669521937	0.06591274495748582	0.0014035971006173857	0.07266791573046677	0.0006400072972707261	0.006755170772980952	0.0012491899296351021	0.3520000000000003
0.00785343214256273	0.06890357133556686	0.001482170766831615	0.07613430352315317	0.0006535899546562861	0.007230732187586315	0.0013302820577691828	0.3680000000000003
0.008194884462496822	0.07143758546567798	0.0015438194169709821	0.0790703410554492	0.0006646090033168358	0.007632755589771229	0.0013934393653571098	0.38400000000000034
0.00853633662266742	0.07399939121666674	0.0015861792332811109	0.08192808188225048	0.0006750184944351063	0.00792869066558375	0.001435379598664693	0.40000000000000036
0.008877788616417743	0.07560591185402533	0.001649654902930924	0.08389053442618039	0.0006815456047408751	0.008284622572155051	0.0015022838904223234	0.41600000000000037
0.009219240437091004	0.07720538985474416	0.0016899972647978516	0.08573203811283361	0.0006874365790192011	0.008526648258089447	0.0015438658312335943	0.4320000000000004
0.009560692078030425	0.07742186850613257	0.0017493172030194968	0.0863689124994208	0.0006884785425239387	0.008947043993288228	0.001608138045462537	0.4480000000000004
0.009902143532579236	0.07591806295087475	0.0018566022032959059	0.08553859454518814	0.0006837084198377629	0.009620531594313394	0.0017261270341218115	0.4640000000000004
0.010243594794080657	0.07298904452372972	0.0019490405449242656	0.0832105865669916	0.0006728380155590126	0.010221542043261877	0.0018292206128778694	0.4800000000000004
0.010585045855877929	0.06817862104622258	0.002035562928775688	0.07894270191309875	0.0006539063315565191	0.010764080866876184	0.0019276729355770272	0.49600000000000044
0.010926496711314277	0.06348807366894055	0.002096089534726989	0.07464709329590875	0.0006344340527430712	0.01115901962696821	0.0019977699492964665	0.5120000000000005
0.011267947353732948	0.061655527060094154	0.0021933298235681017	0.0734341098512991	0.0006277230869354267	0.011778582791204948	0.002101584983073856	0.5280000000000005
0.011609397776477185	0.06455689640679717	0.0023113247045864664	0.07703512534736784	0.0006412722637209181	0.012478228940570674	0.0022205836561170053	0.5440000000000005
0.011950847972890236	0.07231161082505272	0.0024070250980098044	0.0852634933977395	0.0006729294777549053	0.012951882572686781	0.002311046460030092	0.5600000000000005
0.01229229793631535	0.08387825140329568	0.0025896306292465397	0.097678415661063	0.0007185755449186611	0.013800164257767323	0.002487938098541979	0.5760000000000005
0.012633747660095791	0.09907983598433667	0.0027936365508447933	0.1137865787616974	0.0007738488634476309	0.01470674277736073	0.002684317998068933	0.5920000000000005
0.012975197137574815	0.11397939351261019	0.0030093671141896454	0.12955097161935195	0.0008239401203687062	0.015571578106741755	0.0028943761168882176	0.6080000000000005
0.01331664636209569	0.12491266473891102	0.0032882407785569407	0.1416987053556443	0.0008598926812184559	0.01678604061673327	0.0031738166290054774	0.6240000000000006
0.013658095327001692	0.1305949340771842	0.003516368104655008	0.14852724777925483	0.0008784148312088053	0.017932313702070636	0.0034048835562684753	0.6400000000000006
0.013999544025636088	0.12652456952084645	0.003581242947443444	0.14507230379233838	0.0008661517302280679	0.018547734271491926	0.0034749219025521035	0.6560000000000006
0.01434099245134217	0.1154410186002707	0.0032898745842213435	0.13289023902970254	0.0008272034271531066	0.01744922042943184	0.003184181098808878	0.6720000000000006
0.01468244059746322	0.09981368965300305	0.0028017712162378148	0.11493387872327707	0.0007677902809027705	0.015120189070274022	0.0026945166603103365	0.6880000000000006
0.015023888457342531	0.08059992470433656	0.002299712737634186	0.09306115367126389	0.0006896377284220132	0.012461228966927316	0.0021938729405263763	0.7040000000000006
0.015365336024323401	0.0615749098937427	0.0017999778966934269	0.07126453211963989	0.0006023840714305007	0.009689622225897181	0.0016961880376514	0.7200000000000006
0.015706783291749137	0.044852421637606235	0.0014185806987502	0.05237910774009654	0.0005154425856360218	0.0075266861024903065	0.0013216240538744207	0.7360000000000007
0.016048230252963046	0.032314570550544916	0.0011472550174975124	0.038322537316801394	0.0004400154667712207	0.006007966766256482	0.0010595189777325002	0.7520000000000007
0.016389676901308443	0.023472530544332054	0.0009590548972280776	0.02847081095768081	0.0003784445176504258	0.0049982804133487544	0.0008812298468376426	0.7680000000000007
0.01673112323012865	0.01752991233081757	0.0008331720947968495	0.021868226603754298	0.000330962953273947	0.004338314272936726	0.000764617069589973	0.7840000000000007
0.017072569232766996	0.01384563918085015	0.0007284870086644109	0.01765493328173027	0.000296774328145717	0.003809294100880118	0.0006652956635560461	0.8000000000000007
0.017414014902566815	0.01119132791169636	0.0006590446178865129	0.014622596420439067	0.00026952240222049726	0.003431268508742707	0.0006014129056367782	0.8160000000000007
0.017755460232871452	0.009342060797533858	0.0006128459390040683	0.012540397186859887	0.00024906906672542335	0.00319833638932603	0.0005599506629644301	0.8320000000000007
0.018096905217024246	0.008386611322311114	0.0005926300660680583	0.011489101430568081	0.0002378795531158563	0.003102490108256966	0.0005427925141499574	0.8480000000000008
0.01843834984836856	0.007867092587273004	0.0005943380490967494	0.010991873896846445	0.0002321214741780837	0.003124781309573442	0.0005471355753645738	0.8640000000000008
0.018779794120247748	0.007940007044284134	0.0005979219720762077	0.011088517049529125	0.00023257152868264274	0.00314851000524499	0.0005508367895644952	0.8800000000000008
0.01912123802600518	0.009350325740148255	0.0006372828081302589	0.012717845680613151	0.00024846622797737415	0.0033675199404648963	0.0005868508422871044	0.8960000000000008
0.019462681558984233	0.012453989491419118	0.0006712619977337685	0.015962276734937393	0.00027768883932378246	0.003508287243518275	0.0006111313918598359	0.9120000000000008
0.019804124712528293	0.016145962818500705	0.0006824341619661976	0.019649742330705953	0.00030741795202239634	0.003503779512205248	0.0006092705377686189	0.9280000000000008
0.020145567479980742	0.01946346517420787	0.0006802764777012625	0.022884811321378255	0.00033115655071927773	0.003421346147170385	0.0005942317940243073	0.9440000000000008
0.02048700985468498	0.021026969907068465	0.0006496409299654121	0.02421964300344143	0.0003401107390541274	0.003192673096372965	0.0005534961816186096	0.9600000000000009
0.02082845182998442	0.01927820641723612	0.0006010519374423798	0.022183747456855876	0.00032495343064814226	0.002905541039619755	0.0005056369244954737	0.9760000000000009
0.02116989339922247	0.015581446958126697	0.0005327825225272458	0.018132327826587143	0.00029326019132935285	0.002550880868460446	0.00044480970818088785	0.9920000000000009
0.021511334555742535	0.011833382405246642	0.0004651367345027994	0.014052051351944563	0.0002576642881065817	0.0022186689466979206	0.0003872483652882942	1.008000000000001
0.02185277529288807	0.008539444873865982	0.00039509983019505527	0.01040365237863459	0.0002212557073932364	0.001864207504768608	0.00032733742188463587	1.024000000000001
0.022194215604002494	0.0062066077790993174	0.00032894657386828914	0.007738374259193848	0.00019043336381061718	0.0015317664800945305	0.0002682181619642095	1.040000000000001
0.02253565548242926	0.004752310017123128	0.00029079635361360407	0.006101643760435474	0.00016874200981559811	0.001349333743312346	0.00023683043174043504	1.056000000000001
0.022877094921511826	0.003743412888933234	0.0002590404230495819	0.0049328434062969415	0.00015141888423658833	0.0011894305173637072	0.00021017674055483167	1.072000000000001
0.023218533914593643	0.003118144903593326	0.00022864366298661624	0.004148178104508878	0.0001385966871541769	0.001030033200915552	0.00018184851644658683	1.088000000000001
0.023559972455018188	0.0026561946061517015	0.00020552255600985402	0.0035652682966805854	0.00012825821903490194	0.000909073690528884	0.00016059062948633928	1.104000000000001
0.02390141053612894	0.0023314223022873224	0.00019249530146551522	0.0031855355488874144	0.00012102155140528584	0.000854113246600092	0.00014969377135257614	1.120000000000001
0.024242848151269387	0.002271071954835919	0.00018917651418640886	0.0031054237768799488	0.00011928867946239856	0.0008343518220440295	0.0001468263071518101	1.136000000000001
0.024584285293783033	0.002417637583766284	0.00018160711690965578	0.0031753178843739903	0.0001203883432036173	0.0007576803006077066	0.00013596981919869363	1.152000000000001
0.024925721957013376	0.0027091879478816274	0.000183467166942278	0.003459363698244125	0.00012539410098659566	0.0007501757503624972	0.00013392729663361816	1.168000000000001
0.02526715813430394	0.003200419884807993	0.0001972139383343269	0.004008288047379301	0.0001346980032453073	0.000807868162571308	0.00014404785800234196	1.184000000000001
0.025608593818998247	0.003961822025748807	0.0002093272513686091	0.004791558255334517	0.00014696574917717162	0.0008297362295857098	0.00014906027886170596	1.200000000000001
0.025950029004439837	0.0051072271085396736	0.000231171345568516	0.0060001431403488015	0.00016410707510460941	0.0008929160318091281	0.00016281602781227755	1.216000000000001
0.026291463683972244	0.007068142214255672	0.0002654314736976446	0.008075885407262045	0.000189993373671462	0.0010077431930063737	0.00018535475497067667	1.232000000000001
0.026632897850939034	0.009456234992188565	0.0002991771952684723	0.010560397712966763	0.00021684161950905298	0.0011041627207781972	0.0002061230366004749	1.248000000000001
0.02697433149868377	0.01200621847807097	0.00031462265029613354	0.0130980278108149	0.00024105974025996968	0.0010918093327439281	0.00020218213003418247	1.2640000000000011
0.027315764620550024	0.014644800146933578	0.00032460872443627984	0.015680362428786867	0.00026331860225601477	0.001035562281853289	0.00018982659899520758	1.2800000000000011
0.02765719720988138	0.016187088741788865	0.0003301564377291786	0.017164308885823168	0.00027508890774646815	0.0009772201440343031	0.00018256332109401423	1.2960000000000012
0.027998629260021446	0.016150449523022047	0.00031749607691880635	0.017018728848335288	0.00027355049994102755	0.0008682793253132426	0.00016116414874545293	1.3120000000000012
0.02834006076431381	0.014307657371451059	0.000294215916518095	0.015086187387943014	0.0002571824270607967	0.0007785300164919557	0.00014289928181660184	1.3280000000000012
0.028681491716102115	0.011339620654154219	0.000257836733825773	0.0119761205188808	0.00022879187419206563	0.0006364998647265805	0.00011888675121149762	1.3440000000000012
0.02902292210872996	0.008542169597668752	0.00021713853963535178	0.00901738595540019	0.0001981937203642427	0.000475216357731439	8.870397174396201e-05	1.3600000000000012
0.029364351935540996	0.006240426427472101	0.00018749630777712648	0.006671675742580955	0.00017015821805734926	0.0004312493151088535	7.874672220227657e-05	1.3760000000000012
0.02970578118987888	0.004492590983513552	0.0001611571728151469	0.004876555341352414	0.00014518888340647181	0.0003839643578388612	6.994156478770726e-05	1.3920000000000012
0.03004720986508726	0.003326656731518874	0.00013911295219670063	0.0036572628145287753	0.0001254459411822508	0.00033060608300990147	6.0130934715675156e-05	1.4080000000000013
0.030388637954509818	0.0027241659325913494	0.0001273163758869382	0.0030334971105054525	0.00011399746649094503	0.0003093311779141032	5.669247924222407e-05	1.4240000000000013
0.03073006545149023	0.002463300520737076	0.00011997697550393767	0.002743526018735845	0.00010819252615508532	0.00028022549799876884	5.185414096534276e-05	1.4400000000000013
0.0310714923493722	0.0022872843030294974	0.0001150235058335532	0.0025552999537263948	0.00010420420701079678	0.0002680156506968972	4.870205473583695e-05	1.4560000000000013
0.03141291864149943	0.002090344513115232	0.00011451623545289672	0.002390983184926622	0.00010061165478765868	0.00030063867181139015	5.4692441005977014e-05	1.4720000000000013
0.03175434432121564	0.0019149608949438693	0.0001133349269775764	0.002241213952352524	9.72349048725255e-05	0.0003262530574086545	5.8225243214979277e-05	1.4880000000000013
0.03209576938186455	0.0019251456596218177	0.00011051806401849034	0.00222569336907684	9.674371277226222e-05	0.0003005477094550226	5.343123162938653e-05	1.5040000000000013
0.03243719381678992	0.002020486677964742	0.00011218866850453248	0.002311546062829987	9.843271926302591e-05	0.0002910593848652451	5.3826546603940756e-05	1.5200000000000014
0.032778617619335496	0.0019790948285317534	0.00011559987084751692	0.0023087344945043197	9.820231203975594e-05	0.00032963966597256643	6.0988819057340315e-05	1.5360000000000014
0.03312004078284504	0.0022007796758220528	0.00012383218345864502	0.0025663842065230123	0.00010333610558114703	0.00036560453070095937	6.823532035139537e-05	1.5520000000000014
0.033461463300662346	0.002706425132957949	0.0001370726812782488	0.003111553896507549	0.00011356305566095718	0.00040512876354960027	7.676165932127003e-05	1.5680000000000014
0.03380288516613119	0.0033012153418004522	0.00014961568068801303	0.003735328930632502	0.0001241975680313332	0.0004341135888320499	8.342551170259511e-05	1.5840000000000014
0.03414430637259539	0.0042992754803257704	0.00016649175419017692	0.00477056577798609	0.0001401472783197392	0.00047129029766031894	8.987905536270312e-05	1.6000000000000014
0.03448572691339876	0.005883835362060122	0.00019284587170496922	0.006432115560060401	0.0001624831138996146	0.0005482801980002797	0.00010386899407972678	1.6160000000000014
0.03482714678188512	0.007639078299212213	0.00021487021478515603	0.008227538624947552	0.00018345459894549804	0.0005884603257353383	0.00011186428977813053	1.6320000000000014
0.035168565971398336	0.009234903994553546	0.00022914653460057207	0.00982957091254618	0.00020020065911576814	0.0005946669179926344	0.00011148017944488243	1.6480000000000015
0.035509984475282245	0.010456182906775548	0.00023932050815556063	0.01104759965310158	0.000211899577333435	0.0005914167463260312	0.0001112334246067582	1.6640000000000015
0.035851402286880725	0.01109081183045409	0.00024030338682349888	0.011638906503949265	0.0002171531481743963	0.0005480946734951745	0.00010290883323015969	1.6800000000000015
0.03619281939953766	0.010797097451730743	0.0002329608688635866	0.01129449946139999	0.00021357727488223178	0.0004974020096692475	9.303501531980736e-05	1.6960000000000015
0.036534235806596954	0.009754971451304141	0.0002206535616733732	0.01021719028321141	0.00020282610904229397	0.0004622188319072684	8.688822572655388e-05	1.7120000000000015
0.036875651501402505	0.008272615274680966	0.0002024300900900126	0.008679999546568047	0.00018665424262106865	0.0004073842718870799	7.834625125304887e-05	1.7280000000000015
0.03721706647729824	0.006578819721661005	0.0001782421651943137	0.006906531576549846	0.00016621045177381215	0.0003277118548888411	6.437666638078021e-05	1.7440000000000015
0.037558480727628116	0.005126578354290632	0.00015419472789431096	0.005379196181052417	0.0001464413023959374	0.0002526178267617849	4.828000686601256e-05	1.7600000000000016
0.03789989424573607	0.0039614161972362	0.00013632373488358713	0.004193942597890422	0.00012908768305124347	0.00023252640065422192	4.382386081887648e-05	1.7760000000000016
0.038241307024966066	0.003091570241040159	0.00012160621309590212	0.0033111844229849257	0.00011450478726879754	0.000219614181944767	4.094782968672916e-05	1.7920000000000016
0.038582719058662104	0.0024675547801164804	0.00010850837365592131	0.0026568365626673204	0.00010239133478085744	0.00018928178255083982	3.591770754443287e-05	1.8080000000000016
0.03892413034016816	0.002017686112916581	9.804438094139845e-05	0.002185181948935264	9.269394661463298e-05	0.00016749583601868314	3.1945780553707315e-05	1.8240000000000016
0.03926554086282827	0.0016756512289213211	8.834873527549574e-05	0.001812452283553553	8.426942488239591e-05	0.00013680105463223188	2.653607082387778e-05	1.8400000000000016
0.03960695061998643	0.0014686855609374013	8.130063430524873e-05	0.0015790274732238319	7.853299654734866e-05	0.00011034191228643058	2.103239386588964e-05	1.8560000000000016
